EMG data generated by the Myo Armband in response to different hand gestures used to control a prosthesis.
EMG data of the Myo Armband for the hand gesture that generates the fist in the prosthesis.

// 1 Reading of the 8 sensors, 100 samples per sensor
{{165, 161, 161, 158, 170, 180, 181, 190, 187, 176, 155, 163, 172, 181, 193, 184, 180, 178, 171, 155, 150, 135, 117, 116, 122, 133, 145, 147, 154, 156, 164, 158, 156, 140, 133, 123, 126, 122, 120, 123, 115, 119, 119, 119, 112, 112, 94, 92, 107, 116, 123, 129, 172, 167, 167, 175, 181, 152, 169, 169, 155, 149, 142, 116, 129, 134, 126, 122, 129, 110, 112, 125, 132, 126, 129, 130, 138, 139, 143, 145, 137, 136, 145, 148, 158, 186, 175, 162, 154, 147, 117, 119, 135, 136, 123, 121, 121, 106, 130, 134},
{564, 546, 539, 488, 485, 538, 535, 527, 525, 543, 530, 542, 586, 616, 587, 537, 539, 491, 515, 531, 504, 500, 519, 457, 439, 476, 485, 500, 503, 562, 541, 505, 535, 538, 452, 478, 497, 442, 398, 405, 355, 354, 357, 388, 374, 426, 446, 440, 453, 533, 521, 493, 518, 509, 429, 471, 471, 413, 403, 426, 342, 338, 360, 339, 335, 374, 369, 361, 371, 337, 295, 377, 431, 475, 481, 481, 438, 453, 462, 541, 549, 571, 552, 511, 452, 435, 402, 368, 389, 399, 436, 442, 450, 418, 366, 337, 329, 327, 355, 367},
{554, 568, 582, 539, 474, 527, 525, 511, 514, 592, 580, 566, 574, 615, 566, 520, 533, 513, 447, 463, 478, 522, 550, 577, 554, 586, 574, 584, 585, 621, 566, 500, 563, 560, 496, 525, 564, 509, 483, 489, 472, 439, 371, 421, 410, 440, 468, 457, 412, 429, 444, 414, 461, 496, 487, 466, 464, 437, 394, 398, 370, 361, 406, 404, 468, 492, 528, 458, 500, 482, 522, 536, 572, 522, 474, 431, 418, 508, 543, 576, 579, 641, 575, 544, 576, 568, 470, 456, 487, 407, 412, 446, 420, 390, 403, 378, 359, 391, 403, 417},
{443, 480, 522, 522, 443, 442, 444, 414, 399, 410, 422, 436, 425, 441, 420, 401, 375, 397, 458, 516, 513, 556, 561, 516, 484, 554, 549, 530, 524, 500, 436, 405, 405, 411, 440, 424, 370, 401, 391, 336, 334, 361, 339, 331, 365, 366, 373, 375, 368, 352, 374, 360, 330, 349, 373, 353, 362, 435, 451, 485, 481, 474, 425, 407, 360, 377, 384, 377, 385, 389, 384, 386, 393, 432, 408, 437, 425, 527, 481, 508, 525, 538, 426, 454, 450, 401, 368, 424, 397, 360, 386, 403, 352, 352, 379, 332, 333, 353, 348, 326},
{321, 320, 332, 353, 350, 314, 319, 329, 299, 271, 288, 285, 257, 264, 253, 225, 235, 239, 310, 346, 352, 388, 385, 342, 339, 356, 400, 405, 400, 364, 341, 246, 236, 238, 271, 266, 239, 270, 267, 242, 268, 275, 279, 277, 289, 276, 276, 291, 286, 270, 283, 286, 235, 236, 262, 230, 226, 304, 320, 319, 332, 346, 288, 272, 265, 258, 237, 231, 226, 236, 241, 246, 257, 320, 294, 291, 307, 339, 290, 305, 328, 327, 292, 296, 303, 279, 247, 281, 291, 273, 281, 287, 247, 223, 217, 201, 204, 232, 241, 242},
{84, 80, 81, 94, 95, 101, 108, 116, 104, 101, 97, 87, 74, 75, 70, 67, 69, 66, 82, 97, 107, 123, 124, 117, 109, 106, 114, 120, 116, 114, 106, 94, 94, 95, 95, 93, 75, 76, 79, 84, 95, 93, 93, 92, 91, 87, 93, 104, 104, 100, 103, 102, 84, 83, 84, 80, 79, 89, 92, 97, 95, 95, 89, 97, 92, 92, 89, 85, 75, 75, 71, 81, 82, 87, 90, 89, 95, 96, 88, 87, 93, 88, 88, 86, 87, 83, 74, 73, 75, 70, 68, 74, 73, 71, 76, 77, 75, 85, 96, 93},
{127, 116, 117, 124, 130, 127, 127, 126, 117, 124, 129, 128, 139, 139, 141, 141, 143, 129, 128, 118, 119, 120, 119, 130, 134, 111, 109, 119, 110, 95, 117, 138, 156, 154, 158, 152, 137, 105, 108, 111, 105, 97, 104, 109, 118, 123, 135, 152, 154, 149, 155, 154, 131, 118, 115, 125, 127, 139, 147, 156, 150, 160, 155, 164, 160, 147, 131, 140, 136, 146, 149, 158, 151, 150, 153, 149, 141, 147, 177, 175, 187, 190, 183, 155, 137, 134, 119, 117, 137, 140, 129, 136, 139, 139, 153, 158, 182, 190, 197, 187},
{165, 163, 168, 161, 161, 153, 153, 154, 154, 165, 144, 145, 150, 162, 155, 157, 173, 168, 153, 159, 159, 135, 134, 148, 140, 125, 122, 133, 120, 123, 130, 142, 140, 149, 141, 134, 131, 109, 91, 107, 113, 105, 114, 117, 106, 118, 133, 166, 164, 163, 155, 150, 115, 117, 126, 143, 141, 144, 148, 149, 140, 153, 193, 206, 230, 236, 240, 216, 219, 189, 174, 163, 153, 154, 162, 169, 177, 193, 264, 272, 278, 281, 274, 192, 171, 177, 158, 152, 194, 207, 191, 210, 226, 236, 229, 228, 242, 235, 204, 204}}

// 2 Reading of the 8 sensors, 100 samples per sensor
{{222, 226, 194, 170, 177, 172, 187, 176, 167, 165, 177, 155, 156, 159, 149, 137, 165, 166, 176, 186, 177, 173, 169, 170, 170, 182, 167, 167, 158, 140, 127, 121, 136, 132, 136, 150, 150, 140, 140, 145, 128, 132, 124, 132, 133, 138, 143, 142, 145, 141, 131, 129, 121, 101, 98, 114, 128, 130, 139, 148, 138, 153, 153, 146, 136, 150, 135, 141, 144, 149, 139, 159, 161, 160, 169, 171, 140, 136, 143, 129, 140, 146, 156, 146, 143, 128, 116, 125, 135, 153, 156, 185, 174, 170, 154, 164, 142, 136, 144, 140},
{651, 667, 658, 626, 618, 522, 516, 500, 571, 606, 627, 636, 646, 641, 633, 606, 618, 565, 566, 556, 569, 573, 570, 487, 483, 508, 479, 500, 495, 464, 451, 412, 397, 398, 452, 419, 446, 454, 467, 400, 400, 393, 380, 359, 363, 343, 372, 382, 372, 391, 376, 327, 321, 374, 344, 373, 356, 337, 273, 385, 386, 453, 456, 471, 409, 411, 384, 404, 407, 390, 378, 412, 438, 432, 459, 444, 385, 335, 343, 360, 415, 412, 414, 395, 347, 271, 284, 325, 320, 355, 400, 435, 453, 453, 478, 491, 481, 457, 485, 461},
{996, 1016, 1030, 988, 1021, 945, 940, 875, 924, 862, 884, 882, 845, 745, 740, 705, 686, 702, 743, 689, 676, 676, 633, 555, 565, 619, 662, 612, 677, 718, 644, 543, 607, 535, 588, 615, 670, 646, 724, 658, 634, 629, 640, 631, 611, 666, 666, 655, 578, 616, 572, 499, 510, 505, 472, 494, 514, 474, 507, 566, 571, 632, 641, 640, 662, 703, 676, 679, 684, 625, 537, 523, 589, 552, 590, 573, 590, 529, 561, 527, 567, 513, 474, 456, 426, 407, 530, 543, 528, 539, 538, 430, 481, 526, 594, 637, 666, 687, 716, 666},
{472, 471, 475, 435, 380, 383, 417, 415, 445, 482, 444, 468, 471, 477, 468, 480, 429, 407, 377, 324, 358, 365, 356, 352, 354, 272, 279, 314, 324, 328, 375, 366, 365, 377, 362, 320, 297, 282, 279, 295, 325, 353, 349, 340, 317, 328, 329, 348, 379, 397, 367, 371, 351, 299, 286, 302, 298, 294, 312, 360, 370, 393, 386, 368, 351, 318, 267, 274, 292, 261, 268, 273, 336, 325, 330, 324, 374, 329, 336, 349, 357, 308, 297, 289, 273, 271, 273, 260, 287, 292, 285, 262, 278, 278, 277, 289, 322, 342, 344, 330},
{363, 356, 336, 307, 302, 294, 317, 292, 288, 331, 302, 304, 312, 364, 344, 368, 354, 334, 267, 241, 212, 197, 200, 216, 216, 212, 211, 227, 252, 244, 251, 238, 234, 191, 198, 199, 204, 210, 224, 213, 218, 216, 197, 195, 226, 234, 235, 253, 267, 262, 259, 261, 238, 207, 194, 181, 168, 182, 202, 205, 197, 252, 255, 235, 290, 303, 273, 274, 285, 252, 240, 229, 263, 263, 247, 238, 250, 203, 206, 205, 208, 233, 236, 221, 228, 239, 204, 198, 220, 215, 206, 222, 234, 224, 234, 247, 235, 255, 267, 261},
{138, 136, 114, 104, 104, 99, 99, 89, 82, 86, 77, 89, 95, 105, 104, 112, 106, 97, 84, 75, 68, 65, 68, 71, 73, 69, 71, 72, 78, 80, 86, 99, 118, 116, 120, 117, 101, 84, 81, 75, 70, 73, 66, 69, 72, 80, 83, 88, 87, 92, 88, 90, 83, 80, 71, 74, 66, 65, 67, 64, 57, 72, 72, 68, 81, 83, 67, 74, 83, 79, 78, 78, 82, 78, 73, 70, 77, 70, 73, 75, 78, 82, 77, 68, 65, 68, 57, 56, 64, 68, 66, 75, 79, 75, 74, 78, 77, 80, 84, 82},
{288, 220, 211, 209, 113, 99, 76, 81, 85, 87, 90, 93, 90, 85, 85, 81, 93, 89, 85, 82, 84, 65, 63, 59, 60, 59, 72, 73, 79, 80, 88, 130, 153, 155, 158, 152, 110, 87, 87, 84, 83, 83, 82, 79, 84, 95, 96, 85, 81, 77, 64, 69, 74, 72, 67, 69, 64, 59, 62, 64, 60, 65, 69, 70, 69, 70, 66, 72, 76, 74, 78, 78, 78, 68, 78, 72, 74, 66, 70, 89, 100, 99, 104, 103, 79, 70, 74, 70, 78, 80, 77, 75, 119, 114, 113, 115, 119, 77, 98, 104},
{142, 117, 97, 84, 74, 63, 61, 73, 75, 80, 86, 87, 89, 91, 86, 85, 101, 94, 95, 100, 101, 79, 74, 67, 64, 72, 78, 79, 86, 83, 75, 69, 76, 72, 75, 74, 76, 82, 87, 84, 82, 81, 71, 70, 85, 98, 100, 96, 100, 94, 84, 86, 85, 75, 62, 63, 62, 61, 63, 67, 66, 69, 69, 70, 73, 70, 68, 72, 77, 71, 71, 76, 75, 69, 74, 72, 66, 70, 78, 76, 83, 94, 91, 84, 91, 89, 81, 89, 99, 103, 105, 105, 123, 121, 118, 115, 115, 92, 118, 111}}

// 3 Reading of the 8 sensors, 100 samples per sensor
{{231, 233, 245, 254, 244, 217, 207, 186, 158, 141, 168, 178, 178, 187, 175, 149, 141, 144, 130, 129, 134, 143, 138, 131, 138, 137, 127, 145, 162, 186, 188, 189, 177, 176, 163, 159, 179, 172, 165, 154, 153, 132, 132, 125, 142, 145, 148, 159, 172, 169, 166, 161, 160, 152, 132, 180, 181, 226, 224, 220, 180, 177, 103, 104, 106, 111, 112, 116, 125, 167, 160, 158, 159, 158, 155, 173, 173, 181, 187, 157, 141, 151, 144, 131, 131, 127, 114, 99, 95, 101, 105, 106, 111, 102, 92, 102, 133, 132, 134, 139},
{510, 471, 519, 582, 605, 631, 660, 647, 627, 720, 751, 722, 716, 664, 523, 505, 519, 572, 573, 573, 578, 584, 522, 525, 519, 454, 413, 416, 409, 503, 543, 543, 526, 513, 425, 352, 375, 373, 405, 401, 394, 397, 405, 360, 403, 402, 406, 395, 410, 382, 374, 382, 424, 441, 466, 493, 455, 437, 422, 361, 321, 340, 357, 388, 393, 433, 421, 389, 384, 409, 357, 371, 387, 346, 317, 387, 375, 387, 436, 443, 398, 420, 422, 396, 378, 405, 385, 337, 323, 323, 286, 320, 325, 334, 333, 347, 342, 323, 308, 296},
{554, 566, 588, 617, 660, 651, 654, 653, 603, 606, 643, 685, 622, 666, 618, 629, 587, 632, 582, 576, 544, 540, 457, 506, 556, 557, 518, 525, 476, 465, 454, 486, 464, 486, 431, 476, 515, 542, 548, 562, 514, 539, 536, 564, 567, 595, 537, 562, 546, 529, 513, 519, 498, 458, 488, 495, 460, 430, 424, 370, 373, 430, 507, 538, 622, 644, 606, 613, 623, 556, 535, 563, 513, 496, 498, 479, 451, 491, 498, 486, 498, 498, 494, 455, 458, 452, 497, 489, 504, 510, 511, 485, 448, 471, 444, 460, 462, 447, 483, 479},
{340, 371, 387, 402, 392, 394, 398, 375, 444, 456, 494, 450, 425, 477, 484, 458, 459, 459, 312, 292, 297, 306, 317, 348, 364, 398, 413, 421, 457, 455, 405, 405, 401, 371, 375, 368, 394, 406, 410, 414, 413, 411, 400, 371, 375, 365, 326, 328, 330, 278, 293, 280, 261, 260, 286, 302, 312, 305, 307, 319, 314, 366, 396, 386, 379, 359, 305, 277, 263, 246, 276, 287, 291, 304, 289, 260, 245, 237, 194, 209, 253, 247, 262, 286, 315, 289, 286, 263, 246, 204, 214, 245, 241, 271, 309, 303, 277, 279, 318, 311},
{250, 263, 238, 257, 247, 254, 253, 230, 269, 296, 321, 307, 305, 364, 355, 343, 346, 348, 234, 228, 246, 256, 252, 265, 269, 246, 229, 232, 248, 242, 257, 274, 274, 258, 273, 259, 249, 264, 255, 258, 250, 266, 267, 263, 243, 239, 213, 199, 216, 208, 241, 262, 254, 239, 275, 260, 237, 241, 252, 232, 224, 245, 255, 253, 248, 247, 233, 211, 197, 188, 198, 195, 208, 213, 206, 182, 179, 158, 137, 195, 206, 207, 226, 234, 212, 214, 210, 191, 218, 204, 219, 247, 247, 225, 256, 238, 207, 218, 271, 263},
{96, 100, 91, 98, 92, 90, 89, 89, 87, 101, 110, 107, 102, 115, 103, 101, 104, 101, 76, 79, 76, 77, 79, 93, 93, 89, 86, 84, 79, 75, 82, 80, 82, 76, 84, 80, 80, 94, 97, 101, 100, 106, 96, 94, 88, 90, 87, 90, 91, 87, 86, 88, 85, 86, 97, 97, 93, 90, 92, 83, 86, 85, 84, 83, 85, 80, 81, 77, 75, 72, 67, 64, 66, 64, 62, 64, 67, 64, 63, 68, 70, 69, 67, 68, 73, 70, 66, 73, 77, 71, 75, 80, 75, 70, 71, 73, 72, 70, 75, 83},
{172, 183, 177, 157, 163, 165, 145, 144, 145, 144, 137, 146, 121, 115, 115, 122, 121, 129, 133, 128, 121, 125, 119, 143, 140, 134, 123, 125, 94, 108, 112, 111, 131, 139, 136, 134, 145, 150, 154, 169, 174, 175, 159, 147, 133, 131, 126, 134, 143, 145, 146, 138, 133, 133, 127, 136, 159, 159, 150, 152, 140, 109, 93, 108, 116, 118, 120, 120, 148, 165, 166, 170, 204, 177, 152, 147, 154, 110, 113, 109, 116, 116, 113, 114, 144, 140, 130, 136, 135, 107, 105, 110, 105, 128, 129, 133, 154, 156, 143, 174},
{164, 163, 169, 166, 174, 158, 140, 148, 160, 157, 179, 194, 178, 162, 159, 155, 148, 151, 172, 164, 144, 147, 159, 163, 165, 156, 153, 151, 121, 118, 125, 132, 129, 148, 158, 157, 159, 169, 154, 157, 184, 176, 162, 170, 164, 139, 145, 158, 184, 203, 199, 199, 205, 183, 157, 159, 171, 159, 162, 161, 169, 150, 131, 120, 141, 129, 121, 117, 147, 186, 185, 191, 239, 221, 182, 191, 192, 141, 146, 135, 129, 161, 163, 157, 195, 189, 155, 146, 149, 93, 99, 105, 108, 134, 138, 134, 188, 190, 174, 193}}

// 4 Reading of the 8 sensors, 100 samples per sensor
{{176, 188, 199, 198, 213, 218, 199, 178, 173, 159, 149, 155, 136, 138, 135, 139, 127, 124, 128, 135, 127, 140, 138, 137, 154, 146, 135, 155, 139, 117, 132, 155, 143, 146, 142, 137, 130, 156, 177, 184, 179, 167, 138, 118, 111, 116, 128, 144, 136, 164, 179, 169, 158, 179, 170, 160, 175, 172, 165, 147, 144, 144, 143, 136, 141, 145, 128, 143, 148, 139, 132, 147, 157, 148, 167, 190, 184, 165, 170, 170, 146, 147, 144, 138, 128, 126, 130, 157, 168, 178, 196, 201, 183, 173, 170, 153, 154, 153, 150, 160},
{524, 501, 565, 508, 503, 517, 471, 348, 341, 388, 386, 413, 413, 431, 394, 380, 373, 385, 396, 424, 426, 468, 478, 453, 445, 440, 383, 392, 388, 370, 397, 452, 449, 477, 459, 436, 396, 417, 396, 415, 405, 388, 352, 401, 418, 445, 449, 459, 417, 407, 464, 452, 436, 494, 485, 411, 419, 410, 318, 316, 337, 395, 449, 462, 473, 476, 447, 439, 456, 436, 418, 426, 403, 378, 391, 439, 470, 469, 479, 498, 437, 443, 468, 458, 434, 444, 386, 404, 434, 452, 489, 526, 492, 490, 478, 456, 490, 493, 506, 508},
{721, 673, 729, 647, 624, 594, 600, 432, 449, 453, 432, 470, 466, 416, 508, 566, 557, 630, 665, 640, 580, 540, 460, 440, 454, 462, 480, 519, 531, 471, 483, 517, 528, 557, 571, 577, 535, 552, 521, 537, 557, 553, 533, 538, 544, 522, 523, 534, 512, 554, 662, 700, 638, 739, 676, 601, 575, 586, 458, 509, 484, 503, 557, 594, 557, 560, 545, 572, 548, 562, 553, 568, 548, 528, 543, 535, 508, 474, 503, 520, 529, 602, 577, 585, 565, 588, 498, 508, 486, 498, 486, 503, 489, 568, 565, 531, 629, 670, 664, 621},
{642, 619, 609, 476, 456, 420, 441, 378, 354, 369, 357, 335, 329, 322, 363, 458, 425, 448, 473, 445, 335, 320, 285, 272, 311, 364, 363, 381, 359, 313, 280, 338, 425, 514, 547, 537, 546, 538, 503, 481, 486, 462, 400, 363, 340, 329, 425, 505, 499, 534, 666, 617, 547, 617, 599, 525, 590, 589, 545, 561, 530, 566, 595, 571, 570, 581, 478, 506, 510, 528, 482, 501, 497, 486, 525, 526, 491, 446, 510, 438, 459, 470, 472, 425, 428, 422, 391, 390, 371, 417, 441, 434, 418, 459, 403, 367, 394, 405, 365, 396},
{514, 513, 498, 374, 353, 340, 381, 331, 308, 315, 306, 257, 264, 269, 259, 318, 300, 306, 318, 340, 282, 293, 283, 272, 274, 291, 287, 283, 262, 229, 208, 225, 299, 361, 377, 373, 371, 359, 341, 326, 329, 327, 284, 269, 262, 267, 322, 372, 353, 382, 491, 456, 405, 425, 403, 364, 418, 421, 424, 455, 396, 433, 440, 437, 420, 411, 308, 328, 300, 327, 315, 320, 329, 330, 309, 312, 323, 285, 329, 340, 348, 352, 370, 339, 320, 314, 287, 277, 270, 275, 279, 257, 260, 289, 274, 279, 295, 285, 263, 249},
{155, 158, 144, 125, 118, 108, 126, 114, 107, 110, 111, 86, 87, 82, 81, 96, 96, 94, 95, 103, 86, 88, 89, 87, 86, 89, 84, 82, 75, 67, 67, 69, 93, 107, 115, 112, 113, 104, 107, 100, 102, 105, 95, 83, 77, 76, 82, 94, 88, 97, 135, 130, 122, 130, 127, 127, 144, 143, 142, 148, 118, 119, 122, 119, 113, 112, 86, 90, 91, 103, 105, 107, 113, 113, 102, 100, 97, 82, 99, 101, 106, 114, 117, 102, 95, 90, 83, 85, 86, 92, 94, 86, 82, 88, 82, 80, 86, 82, 81, 83},
{149, 161, 134, 136, 127, 117, 105, 103, 97, 96, 91, 79, 73, 72, 77, 75, 76, 72, 72, 62, 61, 88, 91, 91, 103, 105, 79, 78, 84, 78, 86, 95, 104, 139, 145, 142, 142, 140, 109, 107, 121, 124, 120, 136, 134, 126, 116, 121, 95, 101, 98, 105, 112, 119, 113, 139, 151, 144, 140, 133, 112, 93, 88, 92, 118, 120, 113, 121, 122, 111, 100, 125, 122, 120, 110, 121, 96, 93, 109, 119, 120, 126, 131, 123, 125, 125, 119, 114, 106, 90, 93, 92, 117, 121, 125, 117, 119, 91, 120, 125},
{226, 231, 238, 229, 224, 216, 153, 145, 151, 159, 148, 133, 124, 127, 107, 105, 98, 95, 101, 96, 93, 137, 152, 140, 157, 165, 140, 127, 141, 132, 123, 118, 134, 182, 197, 197, 198, 199, 148, 153, 190, 192, 184, 195, 182, 144, 146, 169, 153, 137, 143, 149, 140, 147, 153, 176, 198, 184, 176, 171, 173, 139, 144, 146, 172, 147, 139, 144, 146, 110, 102, 143, 139, 158, 173, 177, 156, 152, 142, 144, 153, 144, 160, 150, 144, 143, 144, 128, 131, 119, 108, 129, 158, 157, 160, 167, 152, 122, 137, 145}}

// 5 Reading of the 8 sensors, 100 samples per sensor
{{161, 141, 130, 135, 145, 134, 153, 151, 156, 154, 158, 153, 160, 154, 150, 147, 140, 129, 114, 104, 114, 108, 102, 110, 124, 118, 127, 131, 146, 140, 146, 149, 153, 146, 157, 153, 157, 162, 167, 157, 153, 150, 155, 137, 137, 146, 141, 129, 137, 134, 122, 120, 139, 145, 150, 165, 167, 151, 145, 148, 133, 123, 134, 135, 133, 152, 153, 163, 155, 148, 132, 140, 131, 147, 155, 165, 166, 151, 145, 136, 117, 108, 111, 106, 114, 114, 113, 107, 122, 140, 139, 139, 155, 136, 111, 138, 146, 139, 145, 155},
{450, 456, 496, 523, 519, 473, 453, 398, 346, 345, 365, 377, 361, 389, 399, 403, 392, 385, 379, 383, 407, 436, 474, 443, 425, 452, 488, 460, 486, 497, 457, 416, 434, 419, 455, 441, 395, 421, 450, 444, 453, 474, 441, 414, 379, 404, 427, 452, 452, 446, 423, 405, 409, 409, 452, 481, 484, 483, 516, 502, 455, 432, 417, 439, 443, 498, 524, 574, 544, 547, 533, 541, 523, 542, 567, 582, 548, 520, 490, 452, 431, 438, 463, 481, 524, 507, 522, 502, 488, 444, 446, 439, 388, 410, 398, 418, 468, 550, 531, 536},
{748, 703, 707, 676, 618, 599, 630, 537, 512, 542, 515, 529, 516, 550, 540, 560, 501, 495, 453, 480, 483, 549, 544, 529, 502, 511, 514, 558, 647, 629, 588, 537, 561, 489, 477, 502, 489, 429, 490, 533, 513, 528, 523, 480, 461, 474, 535, 604, 577, 577, 571, 541, 479, 503, 502, 538, 574, 609, 668, 683, 658, 642, 606, 525, 508, 517, 553, 604, 607, 662, 685, 628, 587, 627, 588, 637, 649, 699, 649, 620, 544, 517, 471, 478, 478, 455, 480, 480, 500, 533, 573, 561, 517, 513, 512, 494, 587, 635, 633, 602},
{318, 313, 416, 439, 395, 415, 425, 317, 272, 279, 247, 229, 287, 291, 317, 310, 307, 276, 268, 256, 288, 297, 281, 308, 296, 309, 309, 368, 393, 381, 359, 384, 391, 363, 413, 437, 421, 411, 427, 406, 376, 374, 345, 325, 314, 309, 296, 290, 273, 247, 249, 260, 263, 265, 278, 281, 300, 269, 308, 317, 314, 302, 310, 267, 281, 291, 323, 369, 379, 377, 405, 378, 421, 420, 402, 395, 406, 332, 343, 339, 340, 325, 299, 284, 299, 246, 240, 324, 324, 321, 351, 355, 300, 292, 314, 313, 326, 362, 394, 387},
{268, 271, 367, 359, 336, 340, 341, 223, 203, 210, 214, 210, 275, 280, 310, 299, 298, 250, 246, 210, 217, 221, 205, 206, 193, 214, 208, 245, 253, 255, 242, 247, 276, 263, 297, 342, 331, 310, 318, 311, 254, 265, 244, 246, 225, 225, 225, 227, 216, 202, 223, 214, 205, 213, 207, 181, 197, 176, 201, 240, 266, 275, 292, 286, 290, 278, 273, 282, 267, 254, 253, 251, 267, 273, 251, 256, 269, 239, 258, 276, 284, 297, 290, 278, 277, 267, 232, 249, 247, 234, 226, 234, 223, 223, 235, 242, 238, 246, 293, 285},
{71, 75, 110, 105, 109, 111, 110, 73, 74, 72, 75, 71, 83, 79, 78, 72, 69, 60, 63, 63, 66, 80, 77, 73, 71, 80, 67, 67, 69, 64, 50, 58, 76, 81, 84, 95, 93, 88, 86, 92, 87, 89, 85, 85, 79, 76, 72, 68, 68, 69, 70, 71, 72, 68, 62, 59, 65, 61, 63, 75, 81, 89, 91, 94, 94, 92, 81, 82, 76, 72, 69, 70, 71, 76, 77, 75, 78, 72, 77, 80, 83, 91, 94, 88, 84, 88, 75, 73, 74, 71, 60, 61, 59, 66, 66, 71, 73, 74, 73, 77},
{131, 130, 113, 112, 115, 96, 99, 119, 111, 104, 103, 112, 92, 87, 83, 78, 66, 69, 78, 93, 97, 112, 116, 112, 122, 127, 112, 111, 114, 94, 84, 87, 80, 74, 88, 99, 101, 118, 121, 111, 115, 119, 128, 141, 140, 138, 133, 110, 98, 118, 117, 119, 132, 128, 121, 112, 140, 129, 127, 114, 141, 131, 129, 137, 137, 114, 91, 91, 79, 88, 83, 102, 110, 118, 121, 121, 104, 98, 90, 102, 119, 127, 131, 135, 133, 121, 112, 116, 111, 88, 90, 93, 105, 120, 134, 131, 132, 117, 105, 97},
{186, 187, 174, 163, 168, 147, 135, 154, 147, 140, 140, 143, 112, 109, 97, 101, 103, 104, 110, 131, 126, 141, 139, 145, 158, 160, 151, 165, 162, 136, 144, 173, 165, 158, 199, 198, 174, 192, 188, 141, 133, 129, 127, 130, 132, 134, 148, 130, 140, 146, 144, 129, 133, 124, 133, 124, 145, 136, 131, 112, 165, 152, 153, 193, 200, 177, 173, 182, 142, 143, 122, 129, 119, 143, 150, 158, 152, 149, 124, 128, 125, 121, 123, 148, 139, 134, 129, 142, 120, 112, 119, 124, 112, 132, 148, 149, 154, 158, 145, 135}}

// 6 Reading of the 8 sensors, 100 samples per sensor
{{176, 171, 157, 151, 141, 134, 131, 164, 180, 178, 182, 185, 189, 173, 213, 222, 225, 210, 212, 178, 165, 153, 155, 198, 195, 195, 206, 202, 164, 165, 175, 165, 162, 150, 154, 139, 135, 150, 158, 153, 151, 146, 124, 138, 134, 127, 149, 152, 138, 142, 155, 142, 133, 164, 185, 198, 225, 231, 212, 193, 176, 149, 152, 169, 168, 168, 163, 154, 129, 128, 122, 111, 111, 107, 99, 122, 149, 157, 169, 183, 169, 152, 141, 125, 96, 113, 111, 117, 131, 160, 151, 144, 141, 140, 134, 144, 144, 142, 134, 115},
{360, 416, 398, 379, 367, 351, 244, 294, 333, 371, 363, 371, 346, 317, 277, 267, 268, 309, 352, 371, 389, 396, 379, 360, 348, 337, 326, 325, 363, 355, 352, 382, 366, 318, 391, 398, 362, 391, 385, 310, 308, 302, 268, 271, 275, 256, 269, 288, 279, 305, 337, 348, 335, 354, 405, 396, 411, 456, 496, 443, 428, 414, 356, 324, 313, 361, 360, 370, 326, 353, 305, 303, 285, 289, 280, 294, 265, 259, 257, 221, 201, 225, 216, 253, 253, 301, 282, 300, 284, 372, 352, 367, 372, 377, 314, 310, 303, 291, 295, 287},
{624, 631, 616, 570, 635, 603, 584, 603, 629, 508, 504, 538, 567, 554, 631, 598, 579, 623, 617, 626, 642, 637, 553, 566, 466, 483, 536, 548, 561, 556, 527, 533, 494, 576, 631, 685, 615, 656, 612, 558, 500, 505, 501, 425, 449, 507, 521, 507, 522, 544, 485, 502, 514, 502, 450, 523, 495, 466, 451, 461, 519, 503, 505, 510, 495, 435, 448, 492, 483, 500, 437, 454, 394, 463, 512, 583, 586, 609, 574, 541, 488, 486, 463, 437, 429, 397, 429, 410, 416, 431, 446, 436, 448, 439, 443, 425, 366, 434, 509, 484},
{226, 209, 185, 194, 181, 176, 178, 183, 192, 171, 170, 169, 183, 152, 169, 177, 170, 173, 181, 203, 215, 240, 229, 253, 235, 229, 223, 240, 224, 212, 203, 195, 186, 193, 214, 220, 204, 204, 182, 167, 143, 155, 154, 155, 155, 183, 194, 183, 194, 212, 213, 209, 222, 223, 202, 180, 191, 175, 166, 171, 190, 176, 168, 177, 216, 200, 197, 203, 190, 173, 171, 177, 183, 187, 156, 230, 241, 232, 234, 233, 163, 148, 201, 212, 227, 227, 226, 186, 165, 158, 159, 148, 145, 151, 188, 182, 191, 190, 195, 196},
{173, 159, 139, 140, 119, 110, 100, 100, 112, 109, 110, 112, 112, 98, 102, 110, 113, 123, 129, 167, 177, 189, 186, 190, 168, 156, 147, 149, 149, 137, 133, 134, 136, 137, 164, 165, 156, 150, 149, 122, 117, 126, 151, 142, 139, 156, 169, 152, 156, 168, 167, 153, 158, 156, 147, 132, 143, 136, 132, 140, 138, 125, 112, 116, 143, 147, 144, 145, 146, 119, 108, 119, 121, 129, 121, 158, 159, 156, 152, 151, 119, 115, 127, 131, 143, 143, 153, 147, 148, 141, 137, 120, 135, 124, 121, 125, 135, 137, 139, 158},
{83, 73, 71, 66, 58, 55, 55, 53, 55, 52, 53, 50, 51, 49, 52, 55, 56, 56, 66, 71, 69, 72, 75, 71, 65, 69, 64, 65, 63, 62, 58, 64, 70, 72, 80, 82, 78, 70, 65, 57, 52, 54, 52, 59, 60, 62, 67, 69, 66, 63, 63, 59, 56, 56, 56, 52, 49, 47, 49, 58, 58, 61, 63, 62, 60, 68, 65, 62, 60, 54, 47, 48, 49, 55, 54, 60, 65, 68, 64, 66, 60, 53, 52, 58, 58, 55, 61, 58, 58, 63, 73, 73, 76, 71, 65, 57, 51, 52, 57, 65},
{200, 179, 169, 158, 138, 145, 149, 162, 168, 192, 192, 171, 165, 168, 157, 167, 171, 187, 202, 214, 201, 192, 181, 153, 119, 128, 131, 137, 162, 168, 163, 178, 183, 177, 170, 175, 160, 150, 149, 141, 128, 143, 130, 153, 179, 194, 208, 223, 215, 208, 221, 205, 189, 174, 163, 135, 125, 153, 175, 214, 213, 217, 224, 212, 181, 182, 192, 167, 165, 172, 171, 169, 171, 167, 151, 158, 147, 149, 153, 154, 173, 178, 185, 240, 245, 224, 237, 229, 179, 170, 183, 160, 163, 144, 148, 148, 137, 130, 137, 129},
{314, 253, 256, 190, 186, 180, 164, 182, 182, 201, 202, 200, 185, 193, 166, 215, 202, 224, 238, 249, 211, 233, 224, 218, 216, 222, 192, 179, 184, 180, 173, 181, 178, 168, 187, 191, 200, 210, 202, 164, 159, 155, 141, 194, 207, 227, 228, 240, 251, 264, 277, 273, 256, 239, 235, 206, 216, 233, 213, 211, 213, 208, 227, 224, 206, 209, 206, 175, 181, 181, 167, 164, 160, 147, 163, 202, 225, 226, 230, 259, 232, 213, 213, 243, 205, 215, 217, 214, 193, 181, 173, 176, 178, 163, 179, 182, 166, 157, 169, 157}}

// 7 Reading of the 8 sensors, 100 samples per sensor
{{189, 161, 177, 190, 211, 211, 207, 212, 202, 190, 194, 211, 183, 184, 166, 164, 164, 195, 197, 201, 197, 194, 165, 177, 182, 178, 160, 172, 151, 134, 129, 137, 137, 145, 145, 146, 157, 156, 149, 149, 144, 161, 178, 194, 198, 227, 216, 194, 179, 176, 148, 132, 134, 132, 182, 177, 173, 179, 182, 139, 144, 144, 137, 162, 154, 151, 148, 156, 135, 144, 183, 193, 196, 193, 185, 145, 146, 143, 151, 157, 155, 167, 153, 140, 136, 131, 117, 123, 129, 137, 148, 145, 140, 131, 127, 126, 131, 142, 157, 157},
{387, 399, 403, 405, 412, 360, 340, 280, 302, 362, 375, 471, 466, 464, 426, 423, 352, 431, 439, 418, 450, 438, 365, 352, 396, 340, 317, 339, 342, 315, 327, 354, 369, 360, 348, 347, 343, 298, 302, 302, 291, 258, 346, 355, 400, 455, 507, 469, 460, 416, 373, 319, 352, 366, 422, 424, 406, 399, 411, 361, 387, 387, 349, 332, 319, 298, 295, 308, 304, 322, 324, 334, 334, 317, 311, 314, 330, 347, 351, 337, 363, 360, 343, 337, 332, 333, 312, 296, 350, 396, 367, 392, 374, 326, 284, 274, 333, 420, 425, 433},
{535, 540, 510, 459, 418, 447, 422, 475, 533, 583, 579, 552, 547, 556, 546, 542, 607, 593, 581, 562, 607, 537, 537, 503, 492, 421, 506, 529, 524, 525, 515, 455, 441, 431, 434, 430, 411, 383, 362, 421, 439, 455, 474, 505, 474, 489, 503, 497, 508, 466, 476, 461, 476, 438, 463, 473, 465, 433, 423, 437, 367, 353, 345, 346, 288, 314, 335, 374, 450, 473, 441, 435, 389, 293, 269, 313, 287, 336, 365, 369, 420, 432, 423, 408, 407, 324, 315, 296, 336, 379, 439, 491, 499, 482, 491, 452, 432, 479, 461, 428},
{167, 171, 150, 136, 133, 141, 130, 145, 150, 149, 144, 166, 172, 175, 203, 221, 227, 226, 245, 229, 209, 212, 214, 207, 215, 223, 208, 241, 233, 213, 205, 198, 165, 161, 199, 223, 223, 230, 236, 237, 227, 235, 218, 228, 199, 183, 184, 194, 179, 187, 193, 184, 168, 146, 125, 133, 133, 144, 159, 175, 164, 168, 159, 151, 145, 160, 159, 191, 230, 233, 223, 245, 221, 173, 163, 191, 168, 173, 173, 189, 157, 144, 157, 163, 158, 161, 176, 162, 164, 155, 159, 190, 206, 204, 210, 207, 169, 138, 160, 169},
{119, 130, 119, 115, 106, 107, 90, 107, 121, 125, 129, 134, 123, 121, 127, 137, 135, 135, 131, 125, 102, 113, 118, 148, 150, 150, 139, 142, 120, 118, 123, 132, 142, 142, 174, 183, 177, 176, 172, 146, 143, 165, 153, 154, 146, 137, 118, 132, 129, 130, 136, 126, 111, 109, 103, 96, 102, 102, 117, 126, 128, 132, 146, 135, 127, 130, 139, 147, 178, 186, 186, 178, 160, 113, 108, 110, 123, 126, 129, 136, 146, 127, 144, 145, 155, 137, 141, 133, 149, 125, 132, 143, 133, 111, 120, 144, 145, 141, 159, 155},
{67, 56, 51, 52, 48, 55, 60, 58, 69, 76, 69, 67, 71, 63, 57, 60, 61, 61, 62, 67, 63, 63, 61, 72, 67, 67, 70, 69, 61, 59, 65, 63, 67, 72, 77, 77, 74, 72, 64, 60, 54, 56, 58, 58, 58, 60, 60, 61, 61, 63, 71, 72, 70, 67, 66, 63, 60, 63, 72, 74, 67, 68, 77, 75, 71, 73, 78, 70, 68, 69, 70, 60, 55, 52, 57, 55, 57, 55, 56, 53, 62, 61, 65, 62, 63, 53, 58, 56, 61, 59, 66, 65, 70, 68, 70, 91, 93, 88, 86, 85},
{149, 153, 142, 144, 144, 156, 196, 199, 211, 228, 211, 160, 160, 138, 104, 108, 130, 134, 149, 163, 167, 170, 173, 188, 188, 187, 229, 234, 236, 243, 250, 233, 239, 217, 201, 201, 180, 174, 201, 220, 238, 228, 219, 197, 185, 172, 167, 182, 186, 197, 187, 200, 199, 207, 196, 205, 207, 199, 188, 190, 177, 166, 206, 223, 215, 213, 230, 188, 166, 174, 197, 188, 201, 196, 185, 163, 179, 168, 174, 184, 178, 157, 176, 174, 178, 200, 205, 221, 225, 227, 218, 214, 186, 184, 234, 274, 273, 277, 281, 238},
{193, 206, 188, 206, 211, 191, 204, 205, 184, 192, 193, 158, 161, 158, 147, 147, 147, 138, 158, 157, 200, 233, 243, 235, 243, 215, 186, 170, 173, 198, 189, 201, 210, 228, 196, 226, 249, 260, 244, 244, 224, 184, 170, 177, 181, 183, 184, 187, 188, 187, 195, 194, 183, 192, 214, 205, 234, 243, 224, 201, 206, 176, 202, 267, 265, 258, 257, 231, 156, 178, 202, 194, 198, 195, 174, 147, 149, 162, 201, 200, 202, 281, 289, 264, 293, 310, 240, 234, 241, 212, 181, 213, 200, 190, 224, 243, 217, 231, 232, 196}}

// 8 Reading of the 8 sensors, 100 samples per sensor
{{180, 176, 196, 197, 191, 189, 192, 167, 159, 173, 176, 163, 165, 181, 193, 182, 185, 200, 208, 193, 184, 186, 172, 155, 145, 166, 170, 183, 213, 226, 221, 236, 232, 211, 228, 221, 221, 240, 222, 202, 200, 185, 175, 188, 197, 211, 202, 181, 181, 165, 149, 152, 162, 150, 146, 146, 152, 143, 173, 197, 208, 202, 197, 190, 176, 152, 167, 178, 167, 162, 166, 153, 143, 133, 120, 128, 116, 131, 141, 168, 173, 176, 185, 188, 179, 177, 181, 154, 152, 135, 166, 155, 158, 174, 192, 161, 171, 176, 149, 148},
{614, 545, 611, 598, 603, 556, 563, 505, 449, 438, 447, 414, 374, 353, 392, 408, 431, 443, 468, 449, 413, 394, 405, 387, 353, 394, 417, 394, 433, 472, 422, 505, 541, 511, 550, 576, 535, 536, 525, 515, 481, 465, 432, 447, 388, 458, 436, 422, 392, 389, 308, 286, 352, 405, 389, 371, 379, 352, 313, 359, 373, 363, 314, 319, 280, 270, 315, 314, 356, 415, 432, 429, 455, 452, 433, 427, 426, 495, 479, 454, 466, 443, 347, 334, 342, 355, 412, 427, 424, 411, 452, 427, 397, 430, 473, 400, 365, 431, 399, 348},
{853, 890, 967, 894, 897, 826, 759, 640, 665, 665, 597, 538, 506, 461, 486, 570, 557, 541, 544, 521, 418, 484, 554, 515, 523, 523, 472, 501, 669, 701, 708, 797, 834, 741, 750, 788, 732, 661, 644, 623, 564, 492, 479, 437, 406, 414, 431, 463, 460, 498, 493, 542, 534, 558, 501, 496, 486, 411, 412, 437, 447, 435, 446, 394, 456, 468, 483, 466, 492, 491, 485, 500, 533, 530, 483, 491, 414, 458, 488, 482, 515, 518, 484, 462, 466, 447, 464, 442, 439, 455, 449, 494, 485, 515, 580, 557, 514, 523, 482, 383},
{293, 482, 547, 558, 560, 576, 475, 373, 354, 351, 299, 239, 246, 245, 233, 221, 217, 223, 208, 221, 243, 225, 278, 281, 270, 252, 265, 252, 401, 410, 424, 446, 442, 323, 331, 360, 338, 322, 308, 303, 243, 219, 220, 213, 261, 269, 271, 283, 304, 271, 282, 312, 290, 270, 240, 213, 161, 145, 181, 197, 193, 194, 221, 192, 214, 233, 248, 234, 241, 242, 231, 224, 245, 239, 213, 284, 305, 287, 285, 294, 236, 212, 207, 209, 205, 201, 215, 239, 251, 241, 226, 226, 204, 198, 206, 208, 188, 189, 170, 164},
{296, 421, 459, 471, 463, 462, 363, 301, 295, 282, 220, 191, 195, 195, 191, 189, 184, 179, 150, 172, 174, 178, 200, 189, 167, 160, 163, 161, 229, 234, 237, 234, 240, 187, 196, 233, 239, 217, 214, 206, 152, 138, 142, 135, 187, 201, 201, 226, 228, 196, 192, 201, 173, 170, 147, 134, 122, 111, 132, 141, 139, 138, 151, 154, 200, 203, 206, 205, 187, 141, 134, 118, 112, 119, 110, 135, 168, 163, 154, 161, 159, 142, 145, 146, 139, 123, 133, 142, 145, 142, 147, 179, 171, 171, 174, 167, 115, 117, 108, 107},
{117, 155, 170, 163, 163, 160, 126, 100, 100, 101, 86, 76, 73, 74, 67, 69, 65, 65, 56, 57, 52, 61, 67, 65, 65, 66, 60, 67, 73, 73, 81, 80, 77, 76, 83, 83, 93, 90, 88, 77, 70, 57, 63, 62, 75, 80, 90, 88, 87, 84, 79, 71, 65, 69, 66, 62, 69, 66, 73, 74, 79, 74, 74, 67, 76, 78, 86, 88, 85, 76, 69, 56, 61, 63, 64, 71, 70, 67, 68, 71, 76, 78, 77, 75, 72, 61, 62, 60, 62, 61, 64, 68, 74, 82, 83, 88, 88, 83, 81, 83},
{182, 184, 174, 170, 157, 167, 167, 173, 163, 169, 172, 174, 187, 197, 202, 184, 180, 155, 146, 138, 133, 139, 137, 150, 144, 155, 152, 185, 195, 195, 183, 192, 165, 150, 182, 189, 187, 188, 190, 192, 237, 226, 221, 214, 189, 126, 129, 137, 141, 136, 138, 133, 137, 136, 132, 133, 152, 151, 142, 160, 157, 153, 149, 161, 157, 181, 183, 176, 176, 166, 155, 163, 175, 170, 188, 181, 179, 179, 198, 188, 192, 183, 210, 183, 202, 195, 197, 155, 173, 171, 165, 152, 169, 171, 146, 156, 186, 173, 165, 174},
{227, 275, 275, 256, 239, 236, 189, 174, 185, 196, 201, 187, 188, 188, 184, 194, 192, 181, 176, 177, 142, 142, 132, 182, 186, 194, 199, 238, 281, 292, 288, 298, 282, 227, 238, 241, 231, 225, 213, 223, 249, 259, 319, 326, 324, 314, 309, 252, 238, 204, 188, 171, 164, 162, 156, 153, 186, 184, 187, 234, 259, 238, 242, 241, 231, 212, 229, 227, 234, 197, 229, 242, 236, 252, 272, 238, 213, 216, 181, 184, 200, 204, 224, 253, 227, 225, 231, 209, 181, 203, 202, 191, 196, 208, 195, 177, 180, 180, 150, 154}}

// 9 Reading of the 8 sensors, 100 samples per sensor
{{153, 144, 169, 177, 171, 171, 185, 152, 147, 171, 180, 166, 172, 172, 145, 133, 129, 123, 143, 145, 175, 175, 172, 153, 145, 111, 120, 117, 124, 146, 160, 157, 171, 175, 175, 168, 165, 156, 139, 124, 104, 106, 107, 132, 124, 134, 135, 128, 111, 121, 117, 147, 151, 151, 143, 148, 109, 131, 150, 156, 149, 145, 133, 112, 115, 131, 136, 121, 114, 131, 119, 121, 139, 146, 124, 128, 123, 104, 98, 91, 86, 92, 117, 126, 128, 134, 128, 107, 117, 142, 133, 135, 144, 129, 106, 116, 113, 101, 112, 142},
{270, 282, 284, 270, 272, 249, 305, 325, 339, 364, 379, 318, 318, 303, 273, 276, 299, 276, 291, 298, 316, 319, 300, 273, 253, 232, 243, 255, 264, 294, 309, 281, 282, 291, 298, 264, 270, 310, 305, 279, 274, 279, 270, 270, 280, 302, 302, 271, 272, 268, 259, 265, 246, 266, 266, 270, 245, 303, 288, 286, 277, 278, 228, 218, 209, 207, 245, 245, 242, 271, 291, 265, 265, 269, 250, 214, 235, 238, 240, 247, 253, 226, 210, 228, 204, 228, 247, 257, 241, 259, 233, 205, 188, 197, 188, 217, 218, 220, 219, 252},
{544, 530, 501, 480, 460, 429, 551, 561, 553, 523, 559, 464, 504, 567, 592, 557, 580, 627, 669, 688, 667, 670, 627, 519, 478, 504, 507, 480, 486, 570, 602, 600, 604, 609, 569, 517, 541, 558, 583, 543, 521, 442, 454, 427, 455, 488, 566, 491, 500, 514, 584, 520, 524, 495, 475, 462, 469, 482, 607, 622, 594, 585, 587, 514, 470, 402, 435, 415, 373, 413, 451, 428, 447, 438, 397, 382, 403, 383, 373, 403, 387, 333, 387, 375, 413, 417, 473, 430, 434, 388, 390, 346, 354, 379, 433, 471, 474, 520, 528, 602},
{203, 219, 211, 196, 192, 182, 214, 222, 241, 252, 282, 252, 248, 236, 225, 178, 173, 205, 218, 217, 211, 213, 192, 161, 173, 181, 170, 161, 171, 171, 165, 189, 186, 174, 158, 146, 134, 130, 134, 132, 128, 133, 153, 157, 159, 166, 167, 175, 172, 188, 264, 253, 234, 236, 232, 158, 162, 180, 196, 195, 182, 189, 175, 179, 165, 153, 144, 146, 117, 125, 131, 123, 129, 131, 130, 133, 147, 137, 145, 142, 142, 126, 127, 111, 119, 118, 124, 137, 131, 124, 122, 125, 111, 127, 145, 163, 167, 163, 163, 191},
{125, 137, 133, 121, 127, 131, 130, 134, 136, 137, 161, 147, 141, 141, 139, 103, 102, 114, 114, 105, 110, 114, 104, 101, 114, 119, 111, 109, 107, 98, 88, 102, 123, 128, 126, 126, 119, 102, 99, 104, 94, 99, 98, 108, 107, 114, 133, 144, 145, 142, 172, 154, 139, 128, 151, 119, 120, 126, 126, 107, 106, 105, 117, 117, 106, 97, 97, 86, 88, 98, 105, 110, 107, 99, 95, 98, 90, 91, 106, 103, 98, 106, 107, 105, 119, 123, 114, 117, 109, 97, 95, 116, 113, 118, 116, 120, 119, 118, 115, 124},
{66, 65, 65, 60, 63, 64, 69, 68, 71, 64, 65, 60, 58, 56, 64, 66, 62, 66, 72, 65, 60, 63, 62, 57, 61, 71, 71, 68, 67, 65, 56, 56, 64, 68, 65, 65, 65, 59, 59, 64, 60, 66, 66, 61, 59, 61, 67, 69, 71, 81, 81, 69, 66, 65, 59, 59, 61, 61, 62, 54, 50, 48, 51, 48, 48, 49, 49, 43, 41, 49, 57, 58, 60, 63, 61, 52, 51, 50, 49, 42, 48, 57, 56, 58, 61, 60, 52, 55, 51, 58, 58, 66, 63, 65, 57, 66, 64, 64, 62, 68},
{188, 219, 222, 252, 255, 249, 253, 272, 224, 220, 225, 227, 199, 206, 222, 254, 236, 235, 230, 202, 153, 153, 156, 152, 162, 193, 198, 207, 217, 217, 204, 217, 218, 237, 236, 242, 226, 216, 216, 217, 209, 201, 197, 187, 192, 193, 200, 231, 226, 242, 254, 245, 220, 214, 187, 153, 188, 194, 211, 224, 225, 195, 185, 154, 120, 110, 120, 115, 108, 120, 135, 153, 177, 193, 200, 196, 185, 173, 165, 153, 155, 183, 172, 193, 205, 229, 212, 232, 217, 226, 192, 190, 169, 157, 129, 165, 160, 162, 179, 192},
{224, 227, 251, 286, 275, 266, 311, 333, 297, 320, 320, 285, 235, 218, 199, 220, 204, 215, 245, 245, 251, 256, 248, 212, 194, 193, 235, 225, 245, 257, 263, 223, 238, 232, 221, 232, 230, 217, 236, 240, 202, 206, 202, 173, 161, 183, 180, 207, 208, 228, 227, 235, 220, 209, 192, 163, 185, 203, 240, 267, 272, 248, 264, 239, 197, 195, 224, 184, 195, 220, 216, 250, 265, 257, 257, 260, 200, 179, 172, 145, 140, 192, 195, 200, 204, 282, 251, 246, 248, 263, 170, 167, 179, 193, 172, 193, 194, 192, 187, 217}}

// 10 Reading of the 8 sensors, 100 samples per sensor
{{268, 278, 277, 242, 250, 226, 231, 212, 237, 234, 231, 206, 238, 254, 349, 353, 352, 335, 349, 257, 259, 273, 293, 248, 248, 241, 230, 210, 245, 245, 269, 277, 270, 229, 225, 200, 197, 213, 224, 217, 207, 199, 240, 235, 252, 273, 279, 259, 252, 248, 225, 233, 200, 227, 272, 277, 280, 312, 296, 282, 294, 279, 279, 301, 278, 259, 283, 274, 262, 247, 246, 230, 206, 191, 192, 208, 208, 201, 252, 301, 302, 288, 294, 270, 241, 227, 240, 230, 236, 229, 238, 245, 269, 242, 252, 266, 272, 251, 258, 238},
{416, 414, 448, 432, 464, 487, 486, 524, 627, 617, 589, 583, 550, 515, 631, 644, 635, 618, 583, 496, 539, 539, 557, 516, 460, 363, 356, 344, 420, 436, 481, 478, 466, 453, 480, 575, 578, 565, 555, 513, 367, 373, 407, 361, 403, 425, 403, 486, 517, 561, 564, 614, 534, 542, 522, 502, 476, 604, 577, 572, 660, 661, 559, 558, 533, 441, 426, 467, 501, 474, 436, 423, 387, 354, 344, 356, 341, 301, 356, 392, 412, 477, 482, 456, 486, 482, 430, 431, 452, 391, 374, 380, 422, 374, 486, 499, 533, 485, 500, 390},
{588, 631, 653, 647, 589, 513, 590, 624, 666, 705, 716, 587, 516, 527, 515, 624, 712, 753, 744, 742, 675, 657, 766, 726, 707, 730, 720, 563, 612, 632, 654, 615, 635, 581, 642, 600, 602, 578, 579, 508, 496, 466, 462, 449, 444, 421, 460, 442, 449, 456, 473, 474, 517, 549, 537, 524, 495, 537, 514, 489, 600, 603, 551, 542, 594, 470, 501, 571, 570, 575, 587, 570, 510, 550, 493, 550, 559, 552, 543, 547, 475, 496, 505, 496, 519, 549, 525, 526, 535, 513, 512, 516, 511, 535, 545, 596, 590, 570, 542, 518},
{366, 370, 366, 361, 366, 314, 350, 408, 405, 436, 457, 432, 387, 408, 412, 396, 407, 406, 414, 381, 374, 360, 361, 301, 279, 264, 304, 293, 325, 352, 495, 469, 464, 467, 488, 370, 375, 376, 361, 301, 306, 294, 294, 290, 303, 240, 310, 363, 363, 355, 423, 411, 384, 390, 385, 373, 360, 357, 360, 355, 308, 295, 275, 263, 258, 242, 229, 237, 276, 312, 329, 347, 370, 358, 366, 357, 343, 358, 365, 343, 343, 386, 340, 313, 335, 339, 309, 319, 318, 287, 306, 272, 302, 310, 300, 348, 379, 354, 392, 388},
{249, 252, 241, 214, 243, 250, 265, 302, 296, 289, 287, 278, 250, 259, 262, 249, 255, 261, 264, 269, 297, 305, 302, 284, 256, 222, 242, 254, 260, 263, 317, 289, 268, 272, 313, 259, 260, 262, 253, 206, 211, 202, 196, 200, 194, 177, 218, 253, 249, 255, 298, 305, 282, 276, 253, 253, 231, 228, 236, 246, 207, 207, 208, 233, 253, 242, 232, 235, 228, 226, 255, 271, 284, 277, 319, 314, 295, 308, 314, 270, 275, 300, 261, 249, 249, 231, 250, 262, 271, 256, 258, 224, 243, 231, 229, 247, 262, 241, 301, 305},
{89, 90, 87, 82, 97, 98, 103, 110, 140, 153, 153, 151, 147, 127, 104, 104, 113, 119, 122, 137, 140, 137, 130, 133, 110, 106, 117, 123, 126, 134, 138, 137, 150, 138, 133, 126, 129, 104, 109, 116, 122, 104, 110, 110, 97, 97, 106, 116, 112, 116, 129, 127, 126, 127, 124, 121, 113, 118, 114, 113, 101, 104, 90, 92, 105, 104, 106, 120, 125, 118, 125, 132, 132, 132, 136, 138, 130, 122, 117, 129, 136, 140, 134, 133, 115, 93, 91, 88, 103, 102, 104, 95, 102, 102, 102, 107, 109, 111, 113, 116},
{170, 173, 175, 165, 180, 199, 209, 203, 210, 244, 237, 235, 237, 229, 212, 200, 195, 204, 215, 195, 203, 213, 190, 220, 231, 231, 218, 217, 232, 223, 249, 265, 281, 289, 284, 262, 266, 254, 193, 189, 182, 156, 170, 170, 182, 197, 215, 224, 232, 228, 228, 217, 262, 257, 265, 264, 259, 226, 253, 243, 235, 246, 248, 230, 256, 267, 257, 300, 316, 297, 312, 323, 294, 270, 283, 258, 260, 247, 249, 299, 324, 366, 365, 387, 345, 324, 262, 244, 233, 222, 214, 251, 245, 222, 235, 244, 225, 276, 279, 291},
{222, 227, 205, 214, 222, 218, 205, 203, 188, 193, 223, 275, 268, 282, 288, 263, 205, 213, 204, 199, 202, 213, 225, 259, 265, 262, 289, 281, 258, 259, 270, 267, 268, 288, 262, 248, 222, 204, 174, 193, 196, 200, 264, 266, 270, 275, 286, 231, 268, 270, 282, 269, 335, 344, 335, 332, 328, 288, 242, 237, 238, 232, 232, 237, 309, 289, 312, 310, 319, 273, 292, 313, 340, 317, 314, 321, 313, 364, 373, 484, 511, 506, 460, 479, 378, 331, 318, 287, 303, 274, 279, 277, 290, 247, 261, 267, 265, 332, 326, 351}}

// 11 Reading of the 8 sensors, 100 samples per sensor
{{187, 205, 214, 236, 238, 241, 228, 227, 233, 225, 224, 236, 260, 270, 283, 282, 301, 304, 281, 261, 260, 220, 186, 185, 176, 174, 181, 186, 197, 210, 231, 246, 239, 236, 251, 244, 241, 238, 232, 209, 201, 194, 193, 209, 212, 216, 224, 228, 210, 207, 194, 166, 211, 211, 259, 274, 285, 263, 263, 209, 189, 178, 165, 152, 158, 146, 150, 156, 161, 161, 175, 173, 159, 151, 147, 153, 135, 137, 142, 142, 150, 159, 171, 206, 216, 202, 200, 209, 178, 172, 183, 204, 193, 189, 184, 168, 148, 145, 151, 159},
{386, 384, 420, 429, 465, 474, 471, 436, 437, 406, 382, 388, 454, 527, 524, 526, 545, 499, 482, 478, 500, 545, 587, 565, 587, 555, 533, 468, 468, 452, 505, 477, 483, 491, 480, 447, 443, 426, 388, 366, 342, 324, 335, 425, 442, 456, 482, 498, 451, 448, 423, 388, 467, 435, 445, 503, 532, 471, 484, 479, 439, 398, 381, 373, 354, 337, 356, 421, 423, 466, 500, 509, 441, 440, 435, 387, 374, 410, 395, 368, 416, 393, 434, 457, 446, 406, 454, 384, 380, 373, 363, 326, 329, 322, 311, 302, 287, 260, 231, 267},
{520, 527, 498, 538, 527, 536, 536, 610, 579, 643, 649, 718, 757, 920, 904, 885, 845, 783, 618, 616, 652, 644, 699, 679, 664, 697, 727, 636, 665, 676, 590, 546, 542, 571, 575, 581, 601, 589, 518, 579, 574, 585, 607, 620, 548, 621, 604, 602, 567, 624, 567, 600, 613, 613, 548, 616, 588, 604, 607, 614, 535, 534, 505, 499, 505, 495, 546, 543, 683, 672, 707, 737, 737, 603, 643, 621, 524, 524, 574, 539, 515, 590, 640, 599, 602, 607, 522, 427, 462, 485, 470, 544, 600, 580, 561, 603, 533, 534, 592, 591},
{305, 257, 254, 257, 266, 235, 252, 239, 245, 242, 243, 230, 271, 294, 299, 296, 297, 271, 250, 261, 299, 326, 353, 358, 359, 338, 316, 287, 270, 263, 230, 237, 245, 320, 304, 311, 328, 308, 228, 280, 291, 279, 328, 369, 339, 402, 402, 367, 338, 353, 308, 305, 315, 310, 284, 246, 254, 267, 256, 246, 233, 220, 223, 227, 251, 252, 278, 282, 320, 302, 316, 312, 297, 269, 284, 276, 301, 311, 303, 306, 313, 268, 267, 273, 283, 282, 289, 271, 257, 287, 277, 278, 312, 341, 296, 299, 291, 248, 240, 266},
{252, 210, 190, 181, 191, 178, 191, 195, 221, 215, 213, 203, 208, 178, 173, 164, 165, 138, 139, 170, 194, 219, 246, 252, 235, 218, 192, 170, 148, 155, 157, 163, 175, 191, 175, 176, 174, 146, 142, 146, 150, 149, 174, 179, 181, 199, 204, 187, 175, 175, 158, 155, 154, 148, 144, 149, 159, 161, 178, 186, 172, 154, 162, 158, 147, 146, 158, 171, 178, 177, 201, 198, 186, 180, 185, 162, 195, 189, 180, 184, 184, 148, 142, 142, 139, 167, 162, 166, 164, 214, 212, 219, 227, 240, 204, 182, 177, 160, 135, 146},
{76, 75, 78, 85, 88, 84, 85, 84, 81, 80, 76, 78, 85, 87, 84, 88, 84, 71, 71, 73, 76, 83, 90, 82, 93, 90, 83, 78, 78, 62, 64, 67, 61, 79, 81, 80, 79, 80, 67, 70, 69, 77, 82, 90, 86, 88, 82, 84, 76, 77, 78, 87, 85, 83, 83, 81, 90, 95, 101, 104, 100, 89, 84, 84, 83, 85, 87, 87, 90, 90, 94, 87, 88, 84, 84, 77, 80, 80, 78, 76, 81, 85, 79, 74, 72, 82, 80, 74, 74, 79, 63, 66, 79, 83, 83, 85, 85, 87, 89, 87},
{159, 177, 210, 218, 216, 208, 191, 152, 132, 152, 164, 163, 169, 176, 198, 204, 210, 211, 216, 180, 179, 172, 183, 169, 183, 198, 193, 174, 171, 160, 148, 153, 153, 168, 160, 165, 173, 185, 177, 176, 159, 147, 160, 177, 182, 191, 231, 225, 222, 224, 223, 180, 203, 197, 198, 283, 309, 303, 302, 307, 253, 271, 259, 264, 255, 226, 178, 179, 187, 196, 199, 191, 215, 209, 207, 196, 206, 200, 209, 240, 267, 288, 278, 280, 263, 290, 260, 261, 244, 234, 213, 272, 271, 304, 303, 290, 246, 300, 319, 369},
{242, 252, 284, 311, 292, 264, 237, 205, 162, 166, 169, 188, 182, 186, 203, 228, 222, 218, 232, 221, 204, 203, 211, 204, 201, 215, 220, 210, 191, 207, 190, 178, 231, 225, 217, 242, 253, 203, 210, 208, 170, 144, 151, 154, 143, 172, 187, 187, 187, 194, 184, 180, 180, 199, 217, 240, 245, 258, 292, 302, 291, 322, 313, 262, 237, 216, 154, 159, 161, 170, 183, 180, 211, 244, 239, 235, 244, 244, 219, 219, 229, 234, 213, 217, 239, 304, 303, 328, 332, 332, 346, 385, 386, 416, 402, 348, 310, 340, 374, 459}}

// 12 Reading of the 8 sensors, 100 samples per sensor
{{51, 52, 58, 53, 53, 50, 55, 61, 64, 82, 93, 105, 109, 127, 159, 164, 161, 184, 183, 189, 209, 223, 209, 206, 180, 166, 171, 190, 195, 198, 209, 212, 195, 186, 178, 154, 125, 129, 185, 188, 209, 221, 221, 183, 185, 161, 153, 157, 177, 188, 190, 212, 204, 188, 176, 173, 129, 167, 199, 207, 228, 235, 234, 206, 221, 203, 207, 194, 201, 186, 198, 206, 193, 189, 175, 151, 135, 146, 161, 181, 195, 200, 193, 181, 158, 143, 119, 146, 160, 163, 190, 195, 182, 181, 173, 157, 164, 174, 165, 185},
{253, 260, 269, 253, 237, 183, 213, 238, 272, 305, 315, 321, 358, 396, 390, 395, 401, 366, 334, 363, 406, 445, 518, 520, 508, 476, 440, 367, 363, 346, 465, 463, 449, 454, 449, 309, 354, 346, 335, 368, 396, 356, 386, 395, 370, 347, 365, 355, 346, 372, 405, 424, 484, 515, 512, 523, 494, 438, 455, 438, 453, 474, 516, 472, 499, 446, 443, 424, 465, 448, 476, 476, 451, 400, 403, 402, 382, 396, 400, 408, 389, 389, 371, 373, 358, 338, 330, 359, 432, 462, 489, 524, 546, 564, 524, 531, 496, 485, 412, 449},
{419, 429, 426, 387, 359, 321, 355, 375, 400, 443, 435, 491, 531, 585, 590, 626, 710, 687, 673, 708, 758, 709, 742, 746, 712, 684, 607, 637, 639, 649, 594, 587, 547, 563, 513, 522, 574, 540, 495, 501, 490, 453, 478, 480, 481, 476, 460, 442, 415, 406, 395, 423, 463, 489, 481, 516, 540, 504, 519, 530, 585, 548, 597, 596, 594, 528, 535, 483, 460, 493, 504, 506, 537, 554, 561, 555, 584, 554, 533, 519, 519, 496, 520, 556, 538, 539, 533, 493, 428, 446, 419, 433, 506, 523, 476, 471, 470, 421, 409, 505},
{173, 173, 176, 163, 184, 185, 184, 189, 195, 164, 312, 413, 433, 454, 467, 471, 442, 434, 422, 434, 372, 327, 378, 418, 434, 436, 445, 402, 356, 333, 300, 332, 381, 416, 403, 408, 380, 314, 259, 260, 257, 229, 228, 329, 338, 318, 382, 392, 329, 323, 326, 248, 240, 253, 249, 244, 297, 301, 267, 261, 290, 253, 255, 301, 298, 279, 266, 305, 284, 320, 317, 341, 322, 371, 354, 365, 363, 368, 310, 302, 327, 290, 292, 331, 350, 317, 316, 278, 269, 294, 298, 320, 366, 337, 283, 281, 263, 230, 269, 273},
{183, 169, 167, 147, 157, 153, 161, 183, 185, 183, 293, 397, 409, 430, 439, 495, 438, 428, 410, 412, 311, 322, 339, 371, 360, 341, 333, 316, 287, 293, 261, 299, 302, 306, 291, 297, 225, 205, 188, 191, 190, 184, 175, 211, 212, 206, 290, 298, 270, 279, 278, 182, 179, 223, 209, 200, 221, 227, 174, 166, 196, 181, 170, 172, 175, 151, 138, 159, 178, 190, 184, 218, 220, 224, 215, 215, 236, 254, 252, 263, 280, 232, 194, 195, 207, 181, 202, 203, 193, 181, 191, 198, 225, 228, 214, 207, 187, 158, 188, 184},
{57, 47, 45, 46, 47, 44, 49, 60, 58, 61, 84, 109, 107, 113, 115, 131, 120, 124, 121, 119, 102, 98, 100, 110, 112, 115, 116, 114, 105, 106, 86, 86, 76, 75, 70, 77, 68, 72, 74, 74, 78, 78, 74, 79, 83, 81, 91, 96, 91, 91, 86, 76, 76, 77, 68, 68, 67, 60, 59, 58, 64, 64, 63, 62, 69, 63, 63, 64, 68, 70, 72, 74, 85, 84, 79, 78, 88, 82, 81, 86, 91, 78, 73, 73, 71, 68, 80, 86, 94, 91, 91, 92, 93, 87, 89, 84, 70, 63, 65, 65},
{35, 40, 72, 85, 92, 93, 102, 94, 103, 112, 137, 157, 158, 158, 153, 139, 115, 145, 138, 160, 172, 170, 141, 145, 124, 105, 113, 124, 121, 142, 156, 159, 155, 163, 163, 150, 148, 151, 156, 132, 154, 166, 160, 149, 150, 120, 102, 124, 135, 152, 168, 166, 167, 156, 144, 152, 157, 144, 154, 147, 156, 176, 168, 167, 179, 149, 122, 127, 117, 131, 141, 135, 153, 174, 167, 161, 179, 176, 156, 172, 176, 160, 148, 193, 166, 172, 178, 201, 165, 170, 174, 180, 158, 149, 142, 135, 126, 135, 140, 142},
{32, 43, 130, 151, 161, 164, 174, 143, 135, 130, 157, 160, 154, 204, 239, 227, 231, 253, 214, 202, 208, 209, 182, 184, 155, 140, 136, 150, 159, 160, 158, 154, 136, 132, 137, 138, 133, 145, 169, 190, 238, 238, 230, 209, 193, 131, 123, 157, 180, 178, 240, 243, 222, 216, 238, 195, 196, 203, 191, 158, 157, 159, 149, 168, 192, 192, 190, 199, 178, 183, 184, 199, 221, 229, 205, 186, 202, 225, 219, 253, 258, 243, 196, 234, 195, 194, 217, 234, 198, 208, 217, 182, 175, 188, 182, 197, 197, 208, 222, 225}}

// 13 Reading of the 8 sensors, 100 samples per sensor
{{223, 225, 227, 220, 201, 200, 184, 185, 164, 196, 199, 220, 232, 240, 210, 203, 183, 155, 187, 235, 235, 271, 279, 256, 217, 256, 231, 240, 248, 253, 214, 216, 231, 225, 231, 247, 256, 230, 242, 228, 242, 247, 255, 259, 313, 311, 297, 300, 333, 298, 293, 334, 351, 304, 300, 291, 248, 253, 250, 241, 251, 260, 221, 234, 237, 226, 216, 215, 233, 243, 253, 271, 296, 313, 324, 327, 303, 301, 270, 261, 263, 275, 250, 234, 230, 201, 176, 178, 173, 142, 135, 149, 160, 180, 209, 212, 243, 230, 230, 221},
{594, 628, 575, 548, 473, 457, 400, 438, 438, 493, 538, 549, 537, 526, 486, 457, 451, 443, 525, 508, 506, 584, 605, 526, 547, 594, 538, 482, 504, 483, 397, 442, 441, 474, 458, 507, 442, 494, 478, 519, 493, 489, 453, 438, 520, 505, 548, 602, 709, 667, 682, 731, 737, 627, 581, 553, 419, 290, 359, 402, 466, 484, 531, 533, 544, 527, 537, 515, 459, 420, 432, 483, 533, 566, 579, 552, 502, 464, 433, 474, 480, 481, 449, 449, 401, 385, 382, 392, 398, 407, 418, 438, 434, 410, 413, 410, 486, 473, 498, 481},
{751, 743, 717, 654, 612, 537, 532, 526, 482, 486, 541, 515, 487, 553, 563, 511, 498, 504, 580, 578, 665, 804, 879, 835, 834, 808, 709, 617, 584, 611, 607, 615, 617, 583, 530, 509, 485, 594, 609, 681, 650, 635, 506, 545, 521, 572, 562, 595, 618, 637, 653, 707, 699, 666, 598, 523, 480, 510, 464, 472, 551, 540, 497, 493, 486, 469, 472, 466, 452, 494, 473, 527, 552, 566, 522, 503, 433, 406, 421, 453, 476, 465, 452, 449, 403, 367, 400, 393, 373, 377, 386, 377, 382, 415, 441, 477, 544, 557, 605, 596},
{267, 277, 273, 315, 323, 308, 308, 294, 245, 240, 226, 229, 237, 234, 219, 213, 203, 252, 293, 303, 326, 340, 330, 299, 309, 282, 260, 201, 186, 181, 189, 181, 194, 182, 166, 173, 183, 223, 223, 234, 248, 252, 209, 222, 203, 177, 171, 193, 220, 257, 265, 297, 305, 343, 317, 340, 341, 338, 291, 301, 278, 232, 272, 259, 254, 254, 260, 192, 194, 205, 195, 230, 246, 231, 233, 254, 215, 197, 239, 248, 240, 243, 241, 205, 199, 189, 212, 240, 252, 252, 267, 265, 244, 239, 265, 260, 294, 298, 292, 246},
{181, 178, 170, 233, 247, 238, 243, 236, 176, 157, 156, 175, 170, 173, 170, 171, 145, 148, 202, 209, 214, 217, 216, 158, 162, 185, 175, 169, 179, 181, 148, 152, 149, 133, 117, 125, 117, 138, 139, 141, 165, 165, 152, 159, 162, 157, 156, 166, 177, 189, 170, 171, 170, 199, 182, 194, 211, 211, 196, 201, 199, 182, 173, 151, 159, 159, 169, 175, 171, 176, 163, 173, 173, 166, 178, 189, 172, 160, 176, 170, 150, 149, 150, 141, 127, 130, 148, 163, 163, 170, 173, 170, 165, 157, 161, 166, 176, 167, 169, 154},
{72, 71, 68, 77, 76, 73, 76, 75, 59, 58, 61, 70, 72, 73, 75, 73, 63, 63, 66, 73, 82, 84, 84, 78, 75, 81, 80, 78, 82, 77, 58, 57, 58, 57, 55, 62, 67, 75, 73, 75, 72, 71, 64, 72, 74, 81, 80, 85, 90, 98, 96, 94, 97, 92, 88, 97, 100, 102, 101, 97, 88, 87, 80, 78, 77, 88, 87, 81, 80, 82, 74, 73, 83, 82, 89, 90, 90, 96, 99, 102, 94, 96, 85, 82, 75, 75, 74, 77, 78, 74, 74, 70, 73, 69, 84, 86, 91, 85, 85, 74},
{159, 148, 148, 152, 148, 155, 172, 176, 156, 158, 139, 119, 115, 125, 125, 135, 162, 192, 188, 201, 206, 193, 159, 177, 175, 192, 196, 197, 188, 181, 151, 146, 151, 155, 151, 162, 162, 174, 157, 160, 157, 160, 144, 186, 203, 217, 214, 258, 325, 386, 384, 387, 365, 316, 220, 218, 223, 235, 227, 237, 280, 320, 326, 313, 323, 347, 327, 321, 322, 344, 309, 306, 344, 367, 342, 313, 294, 241, 226, 222, 232, 261, 282, 258, 280, 271, 237, 230, 245, 225, 293, 305, 292, 284, 281, 211, 211, 215, 233, 224},
{220, 206, 206, 206, 187, 187, 222, 243, 227, 232, 234, 205, 199, 229, 223, 219, 241, 244, 219, 228, 235, 227, 199, 204, 200, 225, 225, 259, 250, 257, 220, 208, 178, 181, 190, 209, 205, 228, 218, 215, 265, 292, 274, 295, 320, 363, 355, 373, 502, 544, 518, 529, 520, 396, 307, 308, 276, 279, 275, 280, 225, 384, 385, 386, 395, 400, 256, 260, 250, 259, 277, 339, 344, 348, 333, 312, 232, 228, 261, 256, 271, 295, 331, 302, 321, 301, 279, 214, 233, 192, 268, 265, 258, 275, 278, 203, 233, 266, 252, 246}}

// 14 Reading of the 8 sensors, 100 samples per sensor
{{265, 246, 234, 239, 204, 192, 193, 195, 188, 179, 175, 177, 166, 156, 151, 178, 196, 202, 219, 222, 205, 191, 183, 185, 175, 170, 153, 152, 142, 151, 197, 210, 225, 214, 213, 190, 197, 198, 229, 249, 239, 227, 216, 208, 187, 227, 233, 230, 210, 205, 158, 148, 159, 181, 186, 200, 215, 205, 199, 195, 206, 201, 205, 187, 189, 152, 157, 180, 184, 188, 221, 234, 238, 233, 236, 215, 212, 184, 202, 213, 227, 207, 208, 195, 188, 163, 160, 212, 223, 213, 211, 212, 161, 142, 192, 194, 196, 187, 208, 175},
{542, 580, 525, 511, 504, 543, 518, 524, 515, 432, 367, 355, 404, 404, 420, 427, 505, 476, 501, 505, 502, 403, 390, 367, 371, 382, 393, 390, 436, 513, 587, 565, 583, 538, 477, 406, 434, 453, 525, 517, 473, 471, 528, 472, 446, 502, 580, 561, 548, 550, 503, 444, 413, 434, 464, 497, 467, 426, 445, 436, 409, 414, 394, 359, 396, 378, 440, 481, 521, 482, 516, 497, 499, 468, 535, 519, 513, 494, 533, 525, 558, 551, 538, 494, 483, 443, 405, 453, 493, 451, 447, 467, 436, 372, 522, 527, 526, 528, 591, 448},
{717, 805, 758, 722, 704, 707, 619, 671, 637, 592, 557, 570, 545, 590, 568, 583, 562, 540, 517, 598, 587, 599, 600, 592, 586, 648, 614, 621, 619, 571, 579, 592, 590, 595, 592, 510, 492, 525, 524, 498, 509, 505, 566, 582, 562, 588, 640, 571, 521, 537, 533, 479, 494, 542, 593, 576, 580, 520, 569, 557, 526, 555, 560, 518, 561, 578, 572, 609, 601, 547, 572, 527, 519, 530, 546, 621, 662, 663, 643, 669, 580, 595, 556, 544, 549, 546, 541, 608, 622, 602, 628, 608, 559, 557, 509, 539, 552, 562, 544, 563},
{379, 425, 423, 448, 428, 395, 344, 324, 293, 245, 232, 243, 263, 261, 258, 415, 440, 444, 443, 462, 354, 323, 309, 319, 319, 322, 320, 360, 350, 326, 369, 381, 350, 357, 374, 346, 393, 387, 498, 533, 523, 497, 479, 402, 314, 288, 302, 335, 315, 316, 366, 355, 345, 319, 348, 327, 315, 362, 385, 383, 385, 377, 382, 364, 380, 359, 358, 292, 316, 275, 359, 362, 390, 376, 389, 353, 352, 325, 316, 311, 279, 285, 324, 325, 314, 319, 327, 315, 316, 314, 333, 320, 282, 270, 301, 250, 299, 307, 323, 293},
{319, 325, 349, 345, 332, 310, 283, 227, 213, 193, 177, 191, 202, 196, 205, 273, 279, 290, 285, 283, 255, 239, 199, 208, 214, 192, 197, 231, 222, 210, 244, 253, 240, 246, 254, 245, 271, 261, 333, 342, 338, 324, 319, 319, 301, 277, 279, 292, 237, 235, 261, 261, 248, 228, 240, 224, 209, 232, 238, 229, 232, 230, 274, 259, 285, 286, 297, 247, 252, 221, 272, 262, 263, 257, 280, 248, 238, 223, 225, 198, 190, 215, 267, 273, 268, 256, 242, 199, 217, 226, 226, 229, 218, 194, 195, 174, 180, 184, 176, 164},
{83, 95, 107, 109, 103, 100, 88, 73, 73, 75, 73, 75, 76, 78, 81, 90, 94, 94, 87, 80, 78, 71, 65, 73, 80, 73, 72, 82, 77, 71, 76, 84, 74, 74, 81, 87, 93, 100, 118, 117, 114, 115, 113, 113, 113, 107, 102, 106, 89, 85, 90, 93, 91, 87, 86, 85, 80, 75, 81, 81, 79, 78, 89, 98, 101, 101, 98, 95, 87, 89, 97, 99, 93, 94, 103, 99, 96, 96, 87, 73, 73, 81, 83, 90, 89, 85, 80, 78, 72, 88, 90, 91, 91, 96, 86, 91, 90, 95, 90, 89},
{167, 175, 169, 158, 143, 148, 142, 151, 136, 149, 158, 155, 151, 151, 143, 137, 149, 146, 149, 148, 149, 138, 145, 150, 145, 136, 138, 139, 151, 169, 196, 191, 193, 192, 183, 155, 157, 168, 151, 162, 171, 197, 185, 190, 182, 175, 150, 143, 137, 167, 166, 166, 171, 176, 144, 149, 134, 132, 130, 139, 143, 171, 190, 207, 211, 227, 209, 217, 204, 213, 213, 224, 210, 207, 202, 177, 162, 160, 152, 126, 137, 152, 139, 179, 193, 188, 184, 185, 158, 150, 160, 158, 153, 154, 180, 169, 165, 172, 180, 169},
{226, 228, 236, 235, 217, 203, 184, 182, 158, 163, 168, 189, 171, 173, 166, 172, 193, 197, 222, 221, 246, 240, 238, 214, 211, 168, 142, 151, 149, 186, 214, 209, 218, 209, 186, 190, 179, 173, 194, 219, 194, 208, 197, 191, 186, 186, 174, 201, 197, 195, 199, 211, 204, 239, 229, 240, 238, 225, 193, 185, 174, 174, 180, 177, 178, 177, 171, 171, 196, 242, 256, 266, 310, 310, 313, 303, 315, 277, 253, 198, 190, 145, 138, 190, 219, 211, 232, 234, 201, 178, 209, 190, 186, 192, 222, 197, 200, 198, 186, 180}}

// 15 Reading of the 8 sensors, 100 samples per sensor
{{273, 282, 250, 233, 244, 234, 204, 205, 240, 227, 211, 213, 229, 197, 206, 219, 260, 271, 273, 304, 315, 308, 306, 312, 275, 266, 237, 238, 220, 271, 277, 323, 365, 433, 407, 415, 400, 361, 297, 294, 275, 255, 259, 245, 249, 247, 266, 259, 248, 258, 250, 245, 246, 302, 283, 295, 293, 319, 276, 275, 301, 292, 262, 267, 267, 267, 269, 271, 255, 247, 194, 174, 137, 154, 172, 186, 184, 199, 191, 186, 184, 201, 181, 206, 223, 217, 202, 242, 240, 229, 234, 244, 226, 228, 223, 214, 206, 189, 160, 157},
{526, 557, 524, 480, 504, 466, 425, 467, 524, 483, 483, 544, 525, 513, 515, 547, 519, 509, 478, 513, 448, 489, 607, 615, 579, 617, 553, 435, 424, 517, 519, 608, 675, 789, 779, 823, 831, 817, 729, 707, 673, 616, 541, 510, 543, 480, 451, 459, 443, 431, 445, 472, 468, 523, 473, 490, 456, 492, 429, 430, 520, 525, 524, 540, 541, 526, 542, 539, 526, 511, 409, 372, 320, 341, 321, 324, 366, 393, 378, 388, 374, 383, 364, 408, 406, 420, 398, 417, 406, 407, 406, 425, 424, 404, 446, 442, 410, 408, 405, 394},
{511, 454, 454, 486, 518, 553, 553, 551, 502, 501, 511, 499, 560, 577, 581, 553, 546, 491, 449, 403, 421, 441, 462, 496, 508, 558, 560, 582, 545, 570, 533, 545, 553, 573, 605, 605, 665, 713, 706, 687, 697, 622, 525, 521, 490, 468, 465, 494, 477, 472, 435, 464, 429, 417, 426, 465, 484, 470, 513, 512, 524, 487, 500, 500, 481, 463, 450, 461, 461, 436, 417, 425, 412, 375, 393, 370, 395, 419, 416, 444, 455, 434, 413, 441, 404, 440, 444, 464, 439, 464, 441, 438, 399, 414, 413, 403, 403, 405, 429, 425},
{402, 377, 408, 432, 441, 438, 451, 459, 578, 611, 623, 682, 666, 588, 547, 585, 499, 498, 491, 517, 507, 535, 564, 509, 465, 507, 506, 428, 426, 540, 546, 594, 615, 744, 723, 665, 681, 718, 615, 581, 575, 495, 425, 518, 507, 518, 528, 556, 473, 523, 509, 509, 478, 425, 338, 358, 393, 373, 419, 455, 459, 421, 482, 506, 464, 498, 481, 440, 416, 403, 374, 422, 453, 448, 454, 443, 408, 373, 330, 452, 435, 438, 498, 504, 401, 397, 429, 369, 352, 394, 400, 349, 327, 380, 321, 317, 366, 399, 364, 419},
{275, 267, 259, 249, 276, 275, 272, 336, 474, 496, 503, 525, 500, 388, 368, 384, 360, 340, 334, 341, 344, 344, 370, 372, 353, 348, 384, 354, 325, 377, 373, 359, 358, 419, 379, 369, 382, 406, 354, 355, 367, 325, 288, 308, 318, 301, 338, 366, 372, 372, 366, 333, 315, 279, 253, 255, 275, 250, 248, 284, 283, 278, 311, 332, 301, 325, 305, 279, 263, 245, 211, 248, 308, 316, 314, 315, 288, 225, 217, 277, 268, 273, 309, 304, 259, 268, 274, 224, 205, 236, 237, 233, 238, 273, 240, 239, 257, 267, 250, 269},
{99, 93, 83, 75, 73, 73, 84, 119, 174, 187, 191, 197, 189, 147, 132, 132, 120, 109, 101, 113, 114, 108, 114, 119, 111, 115, 118, 112, 106, 143, 139, 149, 154, 166, 135, 131, 137, 142, 132, 141, 142, 127, 109, 111, 112, 106, 112, 123, 119, 115, 123, 119, 113, 111, 105, 95, 104, 100, 94, 89, 91, 72, 82, 88, 83, 88, 89, 80, 75, 73, 66, 80, 98, 96, 100, 104, 95, 81, 81, 96, 97, 101, 112, 114, 97, 92, 88, 70, 70, 75, 84, 83, 85, 91, 89, 84, 85, 81, 72, 82},
{113, 102, 103, 107, 92, 94, 93, 104, 107, 113, 131, 139, 141, 139, 130, 127, 128, 133, 140, 144, 133, 143, 155, 152, 158, 166, 150, 133, 134, 183, 187, 188, 237, 239, 206, 204, 217, 176, 180, 175, 177, 168, 165, 154, 190, 182, 176, 162, 160, 132, 142, 159, 162, 174, 154, 143, 136, 127, 123, 128, 128, 116, 128, 138, 138, 151, 168, 169, 154, 157, 142, 119, 128, 129, 128, 134, 135, 128, 130, 135, 148, 157, 153, 162, 154, 145, 146, 165, 172, 177, 182, 178, 153, 123, 139, 128, 127, 154, 158, 162},
{125, 159, 167, 165, 174, 173, 140, 136, 133, 128, 160, 163, 168, 175, 166, 130, 131, 140, 150, 159, 160, 205, 221, 219, 234, 238, 197, 169, 162, 175, 182, 180, 196, 197, 161, 154, 181, 226, 222, 220, 242, 245, 204, 206, 259, 239, 220, 207, 209, 142, 151, 194, 195, 211, 207, 212, 175, 183, 163, 173, 159, 163, 157, 161, 158, 161, 181, 201, 198, 187, 182, 179, 161, 166, 176, 182, 170, 161, 149, 145, 148, 140, 136, 169, 194, 197, 191, 231, 220, 201, 221, 223, 183, 177, 199, 180, 180, 203, 213, 186}}

// 16 Reading of the 8 sensors, 100 samples per sensor
{{90, 92, 99, 102, 107, 101, 98, 103, 88, 81, 82, 88, 79, 87, 98, 104, 113, 124, 126, 127, 140, 132, 124, 141, 151, 135, 150, 164, 144, 133, 142, 133, 114, 118, 110, 94, 87, 95, 101, 102, 112, 127, 123, 115, 112, 102, 76, 70, 75, 79, 80, 91, 97, 101, 100, 96, 91, 87, 81, 83, 89, 97, 106, 115, 112, 109, 116, 110, 92, 105, 113, 105, 101, 106, 98, 89, 89, 102, 99, 98, 102, 103, 98, 102, 103, 101, 92, 89, 88, 87, 96, 100, 93, 87, 97, 101, 95, 96, 107, 110},
{162, 167, 165, 145, 131, 155, 156, 161, 167, 177, 175, 186, 185, 200, 246, 253, 264, 272, 277, 233, 249, 243, 235, 215, 221, 195, 236, 229, 230, 233, 251, 206, 206, 218, 209, 176, 172, 185, 183, 209, 213, 215, 206, 193, 160, 147, 160, 165, 173, 174, 197, 203, 202, 221, 233, 237, 221, 221, 193, 201, 182, 180, 195, 208, 189, 193, 210, 198, 185, 188, 200, 206, 202, 195, 196, 196, 173, 180, 178, 171, 160, 165, 172, 199, 197, 186, 178, 191, 180, 191, 186, 199, 170, 168, 157, 166, 221, 242, 258, 269},
{239, 240, 246, 204, 223, 244, 287, 262, 293, 286, 279, 272, 287, 256, 261, 277, 260, 271, 290, 273, 271, 259, 233, 214, 211, 181, 232, 234, 223, 228, 254, 202, 210, 212, 207, 205, 200, 191, 204, 217, 216, 244, 257, 249, 246, 224, 187, 207, 212, 210, 233, 267, 232, 261, 256, 261, 273, 295, 267, 281, 252, 221, 208, 214, 200, 209, 193, 176, 168, 178, 196, 230, 243, 264, 247, 244, 233, 229, 227, 263, 274, 274, 272, 289, 268, 261, 241, 239, 215, 218, 212, 244, 238, 230, 223, 213, 218, 237, 228, 274},
{74, 76, 77, 93, 95, 100, 114, 115, 103, 101, 97, 80, 77, 71, 84, 109, 114, 121, 123, 120, 95, 88, 79, 85, 85, 86, 96, 96, 90, 80, 89, 86, 88, 86, 86, 78, 74, 74, 87, 95, 96, 100, 100, 88, 81, 85, 83, 80, 89, 89, 89, 81, 82, 75, 75, 70, 82, 82, 90, 95, 94, 86, 88, 81, 83, 84, 89, 90, 91, 89, 94, 93, 91, 97, 93, 89, 83, 81, 67, 69, 61, 61, 66, 85, 91, 93, 94, 92, 91, 87, 91, 89, 88, 88, 85, 87, 90, 94, 82, 85},
{70, 72, 74, 101, 121, 124, 127, 130, 107, 77, 83, 86, 74, 87, 99, 110, 107, 118, 113, 113, 99, 99, 88, 87, 83, 84, 85, 84, 84, 78, 77, 75, 82, 85, 82, 87, 92, 89, 90, 101, 95, 100, 96, 90, 82, 86, 74, 77, 79, 92, 91, 89, 94, 96, 87, 77, 72, 61, 64, 79, 92, 94, 104, 102, 87, 74, 79, 68, 75, 74, 81, 79, 83, 76, 75, 72, 72, 83, 82, 84, 80, 77, 56, 57, 55, 55, 53, 52, 55, 57, 56, 57, 53, 47, 48, 65, 75, 79, 79, 77},
{41, 42, 43, 43, 51, 52, 49, 52, 50, 41, 37, 41, 39, 52, 55, 60, 57, 58, 47, 44, 42, 43, 41, 40, 43, 39, 37, 39, 43, 41, 43, 41, 40, 39, 38, 38, 42, 41, 43, 44, 48, 47, 49, 48, 46, 42, 42, 42, 40, 50, 51, 51, 52, 57, 50, 50, 52, 51, 47, 49, 58, 55, 58, 59, 56, 44, 48, 42, 45, 43, 45, 40, 42, 36, 36, 36, 38, 40, 40, 42, 40, 39, 33, 31, 29, 30, 27, 31, 35, 39, 38, 39, 37, 35, 36, 46, 48, 49, 48, 49},
{106, 112, 112, 118, 112, 84, 92, 104, 106, 111, 127, 122, 120, 117, 113, 114, 110, 100, 105, 104, 89, 87, 89, 84, 105, 99, 98, 115, 121, 114, 112, 115, 98, 102, 105, 104, 112, 113, 116, 108, 124, 116, 116, 103, 120, 99, 96, 101, 135, 116, 122, 130, 130, 102, 102, 101, 95, 94, 94, 93, 92, 87, 97, 98, 105, 100, 109, 100, 87, 81, 104, 95, 90, 117, 122, 108, 119, 124, 116, 109, 113, 108, 113, 99, 99, 98, 100, 87, 93, 133, 127, 122, 124, 128, 96, 101, 106, 102, 106, 98},
{89, 96, 105, 124, 135, 133, 137, 129, 109, 100, 96, 92, 94, 115, 117, 132, 140, 137, 129, 126, 130, 116, 110, 111, 138, 132, 139, 165, 165, 149, 147, 144, 113, 121, 134, 124, 120, 134, 136, 123, 135, 139, 130, 110, 110, 90, 83, 83, 101, 98, 101, 106, 108, 95, 88, 98, 95, 85, 79, 82, 69, 66, 71, 101, 113, 111, 111, 125, 100, 102, 110, 109, 90, 108, 102, 98, 105, 105, 119, 113, 113, 121, 119, 92, 90, 92, 75, 73, 69, 103, 101, 101, 103, 115, 95, 103, 112, 119, 120, 127}}

// 17 Reading of the 8 sensors, 100 samples per sensor
{{287, 272, 282, 250, 215, 203, 199, 183, 232, 276, 284, 282, 290, 262, 221, 227, 229, 202, 186, 186, 186, 169, 181, 183, 194, 203, 224, 224, 226, 240, 234, 253, 280, 275, 255, 247, 231, 208, 232, 245, 249, 266, 264, 260, 265, 260, 248, 256, 237, 219, 219, 207, 226, 246, 250, 252, 242, 208, 182, 179, 202, 216, 217, 223, 223, 207, 176, 184, 193, 194, 207, 228, 233, 239, 231, 201, 194, 169, 142, 141, 152, 137, 179, 189, 197, 195, 222, 202, 202, 199, 212, 197, 211, 224, 244, 231, 272, 277, 271, 251},
{427, 389, 407, 387, 398, 359, 479, 493, 490, 487, 493, 407, 378, 410, 378, 424, 408, 412, 370, 372, 347, 330, 322, 325, 307, 329, 341, 354, 384, 381, 340, 327, 323, 260, 336, 346, 358, 360, 397, 368, 393, 386, 412, 414, 434, 401, 397, 373, 350, 294, 317, 314, 295, 293, 312, 279, 269, 294, 275, 241, 281, 302, 295, 314, 334, 363, 363, 367, 361, 361, 429, 412, 419, 410, 396, 250, 306, 271, 282, 299, 316, 279, 276, 286, 254, 240, 279, 277, 278, 279, 305, 269, 291, 287, 313, 282, 310, 319, 311, 328},
{431, 402, 347, 336, 330, 354, 354, 355, 427, 474, 537, 557, 568, 547, 485, 409, 456, 436, 406, 463, 477, 454, 444, 428, 453, 427, 388, 416, 411, 362, 338, 345, 447, 454, 428, 477, 498, 404, 424, 454, 458, 431, 526, 519, 552, 511, 547, 450, 456, 401, 412, 431, 422, 470, 445, 433, 419, 492, 440, 467, 480, 477, 422, 448, 477, 461, 435, 415, 399, 356, 443, 441, 474, 491, 495, 469, 498, 494, 458, 430, 400, 344, 292, 334, 339, 324, 334, 345, 325, 317, 303, 380, 407, 398, 433, 440, 375, 387, 364, 322},
{283, 250, 244, 216, 195, 209, 211, 197, 193, 207, 234, 240, 258, 258, 247, 190, 216, 188, 212, 218, 229, 217, 226, 203, 238, 268, 250, 258, 283, 258, 241, 249, 271, 277, 298, 293, 294, 277, 247, 226, 249, 268, 269, 281, 298, 279, 304, 294, 298, 282, 285, 275, 304, 333, 328, 328, 304, 266, 233, 238, 237, 241, 270, 260, 265, 261, 265, 236, 230, 217, 215, 184, 196, 208, 230, 235, 244, 249, 226, 201, 212, 222, 229, 257, 255, 253, 240, 210, 188, 183, 176, 189, 208, 207, 218, 209, 193, 192, 195, 176},
{252, 223, 217, 183, 169, 170, 175, 149, 152, 154, 210, 200, 212, 209, 209, 136, 144, 137, 149, 154, 166, 158, 159, 152, 169, 200, 197, 192, 198, 198, 176, 191, 224, 255, 250, 237, 231, 227, 195, 209, 220, 253, 242, 256, 269, 269, 312, 312, 305, 274, 271, 182, 206, 217, 222, 233, 235, 205, 192, 198, 177, 184, 212, 201, 194, 201, 196, 172, 169, 183, 181, 182, 182, 187, 178, 177, 165, 181, 175, 166, 176, 190, 173, 189, 202, 200, 190, 176, 151, 131, 134, 142, 145, 154, 197, 184, 179, 194, 197, 159},
{90, 87, 82, 76, 67, 68, 73, 66, 68, 70, 82, 78, 81, 87, 81, 68, 69, 65, 54, 58, 58, 55, 64, 63, 72, 82, 82, 79, 88, 102, 103, 115, 132, 127, 112, 104, 97, 107, 112, 117, 120, 123, 96, 109, 128, 127, 126, 125, 114, 89, 90, 81, 81, 83, 81, 80, 78, 89, 89, 86, 86, 92, 88, 81, 88, 88, 85, 76, 76, 69, 75, 76, 82, 91, 98, 97, 98, 96, 93, 82, 83, 81, 91, 88, 90, 82, 77, 61, 56, 55, 63, 67, 69, 75, 84, 80, 79, 80, 81, 72},
{253, 250, 234, 255, 286, 287, 295, 300, 271, 232, 224, 213, 196, 219, 248, 250, 279, 281, 246, 229, 230, 188, 222, 269, 272, 293, 294, 318, 316, 328, 370, 417, 435, 414, 399, 373, 341, 301, 388, 453, 527, 536, 571, 534, 504, 419, 402, 340, 344, 352, 351, 366, 371, 373, 347, 335, 307, 338, 314, 365, 363, 365, 328, 316, 251, 294, 321, 324, 336, 333, 329, 351, 348, 369, 377, 367, 326, 311, 295, 284, 271, 319, 385, 374, 375, 365, 357, 351, 359, 366, 364, 324, 259, 250, 259, 266, 291, 315, 309, 287},
{316, 355, 314, 318, 305, 320, 291, 320, 309, 345, 386, 372, 341, 343, 309, 270, 322, 333, 329, 351, 345, 291, 288, 272, 235, 239, 288, 327, 441, 536, 563, 555, 585, 496, 398, 354, 369, 316, 478, 518, 551, 631, 625, 585, 560, 544, 517, 551, 525, 543, 525, 441, 386, 400, 383, 396, 377, 387, 339, 375, 358, 421, 404, 396, 359, 384, 327, 316, 306, 293, 258, 282, 381, 446, 449, 480, 480, 417, 343, 362, 321, 341, 407, 393, 380, 394, 389, 403, 421, 413, 397, 378, 296, 312, 306, 331, 359, 373, 338, 333}}

// 18 Reading of the 8 sensors, 100 samples per sensor
{{246, 259, 256, 249, 277, 288, 267, 253, 256, 207, 274, 267, 270, 266, 262, 239, 248, 251, 254, 255, 237, 243, 284, 275, 299, 280, 265, 220, 218, 218, 220, 229, 244, 257, 221, 201, 206, 178, 195, 203, 221, 242, 275, 285, 306, 310, 285, 253, 249, 230, 221, 224, 223, 181, 190, 167, 179, 210, 231, 222, 223, 209, 191, 206, 244, 243, 244, 245, 218, 169, 175, 189, 194, 187, 184, 209, 215, 212, 225, 227, 217, 200, 206, 188, 220, 208, 238, 236, 247, 224, 231, 200, 196, 215, 205, 190, 191, 189, 154, 165},
{430, 359, 344, 337, 341, 349, 359, 357, 381, 370, 396, 378, 354, 344, 346, 320, 349, 370, 348, 355, 373, 354, 368, 366, 369, 345, 355, 335, 335, 351, 347, 334, 350, 365, 339, 329, 332, 309, 299, 291, 303, 323, 312, 303, 321, 340, 339, 325, 401, 433, 410, 402, 399, 385, 399, 392, 402, 435, 473, 430, 430, 417, 401, 289, 295, 349, 400, 397, 390, 380, 355, 320, 320, 308, 300, 340, 366, 351, 377, 396, 351, 295, 312, 281, 295, 294, 336, 350, 372, 349, 357, 306, 281, 299, 284, 317, 350, 349, 310, 307},
{520, 492, 504, 467, 435, 415, 413, 402, 414, 411, 399, 458, 517, 528, 538, 552, 512, 516, 566, 558, 527, 536, 483, 485, 483, 485, 471, 453, 370, 450, 435, 522, 528, 502, 417, 436, 351, 341, 364, 417, 411, 391, 397, 435, 434, 460, 463, 483, 486, 505, 462, 461, 474, 433, 433, 429, 404, 369, 361, 272, 355, 390, 399, 389, 421, 446, 541, 528, 561, 549, 535, 458, 493, 481, 491, 461, 452, 411, 424, 455, 480, 456, 457, 466, 418, 371, 397, 398, 364, 344, 454, 482, 470, 515, 622, 539, 565, 571, 532, 434},
{212, 242, 242, 242, 228, 224, 178, 181, 188, 233, 240, 274, 273, 294, 278, 279, 261, 303, 281, 261, 352, 362, 322, 352, 364, 263, 249, 276, 230, 232, 235, 272, 282, 306, 285, 313, 292, 265, 238, 264, 258, 261, 254, 272, 247, 225, 240, 239, 224, 252, 258, 219, 244, 273, 284, 276, 284, 283, 252, 222, 248, 243, 211, 206, 206, 185, 167, 199, 208, 198, 196, 209, 180, 173, 164, 156, 150, 154, 167, 177, 190, 206, 216, 205, 211, 216, 208, 217, 219, 222, 228, 298, 290, 303, 327, 320, 258, 261, 257, 237},
{208, 222, 208, 200, 181, 168, 142, 184, 181, 204, 205, 206, 179, 190, 171, 182, 193, 213, 212, 213, 255, 258, 236, 238, 250, 197, 181, 226, 230, 212, 215, 236, 208, 211, 206, 218, 203, 193, 184, 212, 212, 219, 217, 214, 188, 170, 179, 176, 187, 198, 210, 180, 178, 173, 205, 195, 205, 230, 220, 185, 206, 193, 172, 176, 187, 163, 160, 175, 171, 151, 162, 179, 155, 151, 156, 154, 145, 150, 158, 162, 188, 199, 195, 191, 183, 153, 147, 182, 185, 189, 200, 249, 223, 241, 264, 258, 205, 218, 208, 186},
{86, 93, 91, 83, 86, 80, 78, 82, 87, 84, 85, 88, 88, 93, 91, 94, 93, 96, 98, 100, 99, 97, 93, 84, 88, 90, 85, 98, 103, 107, 103, 104, 92, 85, 78, 84, 87, 100, 110, 115, 111, 110, 96, 89, 79, 77, 75, 79, 93, 94, 97, 101, 97, 82, 89, 83, 80, 85, 82, 76, 80, 73, 91, 97, 96, 93, 97, 76, 68, 64, 64, 69, 73, 73, 87, 90, 85, 82, 83, 79, 88, 85, 85, 93, 88, 79, 79, 86, 83, 86, 86, 105, 97, 99, 105, 111, 99, 101, 99, 93},
{277, 298, 301, 230, 231, 273, 272, 274, 304, 343, 311, 323, 327, 352, 309, 313, 282, 281, 267, 295, 291, 305, 303, 281, 300, 329, 314, 333, 326, 314, 285, 279, 254, 244, 192, 225, 251, 273, 276, 314, 313, 296, 308, 325, 320, 332, 334, 312, 302, 283, 250, 271, 344, 351, 365, 380, 373, 301, 316, 298, 273, 264, 282, 249, 243, 234, 284, 285, 316, 317, 328, 314, 301, 310, 347, 351, 339, 356, 339, 323, 327, 318, 309, 313, 321, 315, 335, 328, 321, 305, 304, 317, 329, 365, 353, 371, 349, 342, 285, 289},
{308, 282, 307, 257, 256, 290, 292, 272, 264, 275, 277, 274, 294, 305, 309, 342, 343, 335, 351, 352, 306, 330, 370, 351, 410, 428, 406, 360, 358, 332, 336, 342, 346, 329, 257, 206, 191, 205, 236, 269, 299, 291, 271, 263, 269, 277, 290, 308, 304, 285, 252, 261, 340, 372, 386, 401, 398, 324, 297, 287, 254, 233, 243, 289, 305, 308, 338, 347, 299, 283, 286, 257, 236, 282, 274, 315, 331, 337, 318, 346, 341, 333, 321, 336, 338, 324, 341, 350, 320, 288, 258, 326, 342, 404, 405, 432, 409, 396, 341, 376}}

// 19 Reading of the 8 sensors, 100 samples per sensor
{{265, 250, 250, 288, 276, 285, 281, 286, 265, 258, 234, 233, 258, 241, 241, 253, 250, 252, 246, 271, 261, 260, 235, 225, 200, 230, 237, 235, 276, 265, 232, 222, 233, 176, 219, 223, 230, 221, 230, 189, 201, 246, 248, 259, 264, 245, 210, 260, 260, 266, 280, 277, 238, 238, 254, 240, 235, 212, 225, 206, 210, 206, 223, 193, 218, 233, 239, 242, 243, 214, 236, 237, 219, 225, 221, 201, 200, 237, 233, 248, 231, 244, 222, 233, 225, 229, 239, 236, 223, 227, 226, 237, 268, 284, 303, 312, 305, 299, 294, 259},
{473, 431, 407, 440, 442, 400, 393, 405, 340, 383, 400, 393, 411, 453, 456, 454, 479, 463, 439, 478, 480, 479, 491, 500, 489, 511, 489, 471, 485, 454, 403, 395, 398, 384, 379, 392, 408, 417, 382, 328, 344, 339, 353, 404, 444, 421, 424, 421, 393, 368, 386, 375, 342, 329, 380, 376, 348, 360, 350, 300, 288, 290, 269, 265, 343, 350, 344, 359, 368, 291, 325, 349, 372, 371, 353, 317, 353, 355, 371, 377, 367, 332, 305, 292, 311, 369, 372, 406, 408, 455, 434, 484, 480, 465, 409, 416, 331, 310, 321, 317},
{441, 366, 321, 319, 334, 374, 520, 545, 566, 592, 587, 575, 589, 653, 647, 655, 588, 548, 506, 498, 473, 481, 533, 521, 525, 535, 512, 504, 464, 470, 466, 432, 383, 364, 322, 309, 397, 447, 444, 465, 445, 523, 501, 525, 521, 542, 399, 434, 431, 444, 446, 486, 475, 493, 505, 502, 489, 493, 463, 461, 475, 465, 481, 480, 512, 478, 482, 473, 512, 441, 518, 506, 491, 470, 452, 389, 422, 392, 402, 424, 440, 428, 446, 437, 468, 499, 501, 493, 514, 476, 512, 520, 545, 541, 540, 440, 455, 405, 344, 355},
{260, 253, 263, 211, 208, 208, 228, 208, 196, 206, 218, 191, 201, 230, 218, 224, 231, 223, 182, 205, 220, 216, 239, 267, 281, 270, 273, 268, 242, 207, 201, 186, 158, 155, 171, 178, 184, 206, 228, 208, 193, 234, 224, 234, 247, 261, 252, 285, 269, 260, 283, 284, 250, 255, 297, 262, 245, 295, 294, 261, 290, 291, 255, 281, 298, 277, 280, 289, 272, 262, 310, 321, 310, 326, 318, 291, 274, 276, 246, 246, 222, 211, 212, 230, 268, 262, 267, 265, 256, 230, 237, 241, 234, 219, 208, 209, 219, 226, 225, 227},
{202, 195, 218, 185, 178, 173, 188, 154, 151, 147, 153, 149, 159, 159, 166, 181, 186, 192, 191, 215, 233, 224, 224, 236, 230, 202, 191, 208, 226, 208, 223, 244, 218, 178, 171, 157, 139, 158, 179, 182, 172, 207, 200, 208, 206, 220, 208, 233, 221, 231, 239, 239, 219, 224, 249, 232, 215, 226, 225, 192, 209, 219, 215, 223, 234, 215, 215, 207, 205, 203, 245, 252, 257, 271, 259, 244, 235, 235, 204, 210, 193, 170, 170, 189, 206, 204, 206, 199, 185, 168, 160, 179, 176, 161, 175, 190, 194, 196, 211, 224},
{86, 90, 92, 83, 81, 88, 86, 79, 83, 84, 84, 85, 94, 95, 101, 98, 100, 102, 100, 98, 103, 101, 93, 98, 95, 88, 83, 90, 87, 90, 91, 94, 88, 80, 70, 74, 81, 82, 87, 100, 94, 99, 97, 92, 83, 95, 95, 107, 109, 109, 113, 104, 98, 100, 103, 93, 91, 90, 92, 89, 86, 87, 85, 89, 97, 96, 107, 112, 102, 101, 103, 96, 91, 108, 98, 101, 108, 111, 101, 101, 108, 99, 95, 96, 101, 96, 95, 92, 84, 89, 79, 82, 88, 91, 91, 100, 98, 98, 103, 98},
{280, 296, 302, 315, 316, 318, 294, 264, 252, 212, 245, 359, 365, 370, 429, 415, 330, 342, 329, 316, 314, 330, 319, 339, 284, 272, 290, 311, 314, 322, 319, 293, 274, 300, 288, 298, 305, 300, 267, 276, 295, 295, 302, 275, 307, 312, 323, 309, 333, 297, 291, 275, 284, 276, 300, 279, 278, 278, 277, 262, 256, 241, 249, 273, 269, 285, 334, 359, 351, 378, 403, 374, 357, 358, 339, 292, 296, 285, 261, 253, 308, 313, 296, 300, 283, 264, 234, 237, 240, 262, 231, 222, 277, 280, 267, 274, 321, 298, 293, 320},
{236, 221, 221, 226, 203, 202, 223, 221, 223, 214, 256, 290, 292, 287, 305, 294, 258, 276, 284, 284, 263, 283, 274, 262, 248, 239, 242, 249, 266, 261, 264, 233, 229, 212, 232, 241, 257, 275, 277, 260, 269, 258, 218, 206, 212, 260, 281, 300, 315, 323, 275, 242, 229, 227, 271, 271, 279, 282, 286, 244, 251, 245, 239, 241, 291, 301, 322, 336, 327, 280, 310, 294, 300, 308, 325, 293, 290, 272, 273, 250, 248, 283, 290, 293, 299, 290, 303, 291, 266, 245, 248, 182, 194, 239, 253, 257, 293, 351, 328, 344}}

// 20 Reading of the 8 sensors, 100 samples per sensor
{{314, 369, 386, 391, 412, 399, 364, 355, 346, 328, 351, 332, 319, 328, 323, 293, 294, 327, 307, 302, 300, 268, 224, 228, 251, 244, 263, 247, 242, 224, 208, 224, 248, 243, 229, 243, 201, 216, 224, 222, 203, 202, 167, 188, 212, 222, 227, 220, 200, 167, 158, 189, 193, 179, 199, 205, 195, 191, 192, 180, 174, 160, 165, 195, 225, 247, 241, 238, 236, 209, 173, 170, 163, 145, 154, 159, 153, 159, 149, 134, 131, 140, 165, 175, 173, 204, 217, 212, 227, 235, 230, 225, 209, 201, 210, 200, 185, 186, 168, 147},
{471, 509, 599, 596, 602, 575, 596, 539, 533, 520, 534, 453, 429, 450, 463, 414, 405, 390, 401, 385, 394, 362, 403, 353, 361, 386, 372, 336, 346, 293, 247, 305, 300, 273, 316, 342, 320, 318, 327, 291, 278, 262, 247, 247, 264, 249, 227, 238, 225, 216, 230, 307, 302, 300, 297, 312, 257, 261, 262, 250, 219, 207, 192, 234, 254, 276, 272, 281, 263, 263, 235, 231, 244, 242, 247, 238, 264, 245, 243, 224, 236, 242, 263, 256, 275, 331, 345, 352, 351, 334, 277, 235, 228, 236, 236, 228, 214, 200, 204, 218},
{288, 327, 425, 455, 484, 473, 456, 375, 328, 294, 399, 392, 380, 370, 357, 300, 300, 328, 351, 356, 308, 286, 395, 395, 418, 422, 428, 325, 331, 298, 294, 295, 316, 307, 315, 342, 336, 314, 277, 276, 230, 231, 211, 217, 199, 257, 256, 253, 275, 296, 244, 244, 284, 278, 300, 313, 301, 278, 260, 233, 255, 261, 253, 291, 275, 306, 324, 324, 297, 309, 233, 206, 240, 265, 261, 269, 274, 240, 240, 272, 279, 320, 325, 306, 274, 273, 270, 262, 256, 273, 264, 223, 290, 337, 329, 348, 337, 291, 237, 240},
{277, 458, 477, 494, 489, 507, 380, 361, 352, 366, 355, 343, 329, 315, 299, 284, 249, 244, 219, 245, 232, 240, 295, 297, 259, 282, 291, 258, 268, 280, 237, 233, 231, 220, 223, 290, 267, 255, 280, 269, 238, 276, 281, 263, 257, 231, 197, 203, 189, 193, 200, 190, 194, 192, 195, 204, 231, 220, 222, 214, 221, 200, 197, 218, 219, 198, 194, 192, 182, 178, 192, 214, 263, 248, 247, 238, 233, 175, 188, 207, 209, 217, 228, 246, 249, 246, 228, 211, 177, 160, 217, 224, 227, 276, 287, 255, 262, 264, 227, 216},
{260, 271, 272, 277, 251, 258, 242, 248, 269, 268, 266, 270, 251, 237, 227, 222, 205, 203, 167, 193, 192, 182, 192, 211, 188, 199, 205, 209, 196, 195, 170, 199, 184, 183, 200, 250, 217, 216, 243, 240, 208, 237, 249, 239, 227, 217, 190, 209, 193, 189, 224, 217, 182, 184, 184, 151, 184, 188, 189, 194, 198, 168, 173, 176, 180, 155, 168, 165, 166, 170, 184, 191, 224, 216, 209, 200, 192, 168, 181, 196, 205, 224, 217, 217, 208, 195, 165, 157, 145, 157, 244, 251, 246, 253, 248, 177, 191, 197, 191, 184},
{104, 118, 124, 126, 130, 126, 104, 99, 103, 103, 101, 110, 107, 108, 100, 96, 88, 93, 83, 85, 92, 94, 102, 101, 99, 98, 98, 89, 94, 93, 90, 91, 89, 88, 87, 99, 92, 87, 90, 88, 74, 87, 110, 120, 120, 120, 112, 93, 72, 66, 75, 73, 76, 77, 78, 73, 82, 75, 78, 81, 77, 67, 66, 58, 53, 95, 103, 109, 112, 116, 95, 95, 101, 103, 100, 91, 89, 77, 73, 84, 86, 87, 94, 97, 95, 94, 91, 89, 90, 87, 109, 109, 103, 99, 104, 87, 94, 105, 112, 104},
{356, 413, 419, 438, 444, 463, 457, 459, 435, 415, 356, 341, 287, 286, 327, 321, 293, 359, 367, 330, 332, 351, 301, 306, 371, 362, 330, 309, 290, 219, 219, 315, 344, 365, 352, 365, 321, 309, 305, 319, 305, 274, 387, 400, 387, 392, 413, 297, 254, 260, 241, 199, 215, 216, 236, 253, 278, 264, 300, 318, 336, 349, 351, 342, 303, 297, 264, 289, 302, 319, 348, 347, 329, 345, 355, 311, 344, 362, 327, 333, 334, 312, 322, 319, 311, 322, 349, 326, 338, 326, 336, 302, 302, 310, 339, 341, 366, 400, 394, 365},
{446, 537, 537, 540, 555, 555, 508, 509, 497, 469, 409, 381, 351, 367, 381, 364, 373, 397, 377, 337, 325, 298, 257, 224, 288, 291, 292, 269, 273, 266, 265, 346, 377, 391, 350, 355, 266, 239, 202, 199, 185, 206, 274, 309, 317, 330, 326, 264, 257, 260, 259, 283, 310, 282, 281, 264, 248, 235, 310, 326, 332, 342, 343, 302, 286, 346, 353, 342, 377, 378, 342, 311, 316, 320, 346, 330, 370, 369, 322, 280, 270, 233, 308, 306, 309, 312, 316, 250, 279, 280, 349, 334, 329, 311, 333, 327, 347, 381, 381, 369}}

// 21 Reading of the 8 sensors, 100 samples per sensor
{{258, 307, 347, 338, 369, 385, 335, 322, 337, 292, 277, 333, 322, 296, 295, 312, 272, 259, 284, 304, 298, 286, 290, 270, 288, 270, 272, 262, 275, 287, 296, 301, 327, 311, 313, 312, 317, 283, 279, 218, 230, 209, 200, 228, 245, 260, 270, 292, 264, 249, 220, 242, 248, 249, 267, 265, 240, 205, 205, 196, 220, 219, 232, 234, 233, 208, 202, 190, 183, 168, 182, 208, 208, 201, 203, 215, 196, 193, 211, 206, 209, 205, 219, 249, 282, 261, 257, 266, 230, 206, 216, 217, 192, 186, 176, 162, 168, 155, 167, 158},
{485, 517, 552, 488, 520, 545, 485, 488, 482, 445, 426, 546, 573, 573, 573, 545, 430, 360, 411, 426, 455, 456, 457, 422, 423, 412, 416, 383, 409, 380, 378, 366, 354, 309, 401, 416, 431, 441, 454, 406, 389, 367, 383, 418, 367, 409, 410, 413, 381, 428, 390, 403, 368, 400, 370, 359, 352, 373, 299, 361, 361, 354, 380, 401, 337, 358, 347, 317, 282, 271, 250, 300, 290, 295, 303, 381, 349, 349, 367, 365, 306, 293, 294, 315, 321, 292, 305, 316, 308, 332, 366, 370, 403, 386, 375, 346, 351, 287, 266, 247},
{447, 453, 470, 450, 446, 490, 454, 406, 405, 414, 395, 457, 446, 429, 424, 383, 399, 423, 457, 533, 590, 566, 551, 549, 472, 508, 470, 486, 511, 507, 376, 455, 420, 356, 415, 458, 391, 440, 451, 479, 494, 488, 456, 431, 359, 323, 322, 339, 369, 387, 396, 410, 406, 401, 453, 424, 438, 438, 461, 468, 483, 459, 474, 446, 352, 444, 471, 445, 458, 465, 376, 357, 357, 340, 344, 348, 346, 349, 344, 325, 360, 383, 400, 428, 434, 424, 396, 382, 422, 414, 414, 413, 407, 331, 358, 333, 443, 439, 429, 402},
{228, 239, 263, 238, 239, 290, 283, 249, 286, 294, 266, 263, 256, 263, 257, 245, 236, 257, 220, 253, 255, 293, 301, 330, 316, 322, 316, 295, 314, 319, 308, 306, 306, 259, 260, 276, 260, 284, 321, 333, 335, 321, 292, 259, 252, 259, 294, 330, 376, 369, 350, 350, 325, 255, 280, 274, 260, 283, 292, 251, 273, 273, 267, 280, 328, 351, 435, 419, 413, 398, 376, 269, 278, 286, 260, 284, 303, 328, 331, 340, 337, 353, 365, 365, 354, 417, 413, 389, 387, 404, 345, 315, 320, 318, 308, 277, 277, 268, 254, 258},
{246, 253, 265, 229, 188, 272, 298, 280, 285, 296, 230, 200, 216, 228, 225, 220, 219, 200, 163, 161, 149, 165, 193, 213, 223, 236, 233, 206, 226, 218, 208, 223, 231, 203, 213, 233, 229, 257, 279, 280, 287, 266, 234, 204, 236, 247, 285, 323, 380, 351, 331, 331, 299, 213, 243, 229, 195, 210, 218, 187, 194, 192, 187, 186, 261, 272, 309, 303, 321, 284, 281, 243, 241, 215, 194, 227, 257, 270, 293, 297, 293, 309, 323, 311, 310, 327, 283, 261, 271, 279, 259, 256, 262, 239, 226, 229, 229, 217, 217, 225},
{114, 125, 125, 103, 93, 103, 104, 109, 108, 116, 101, 92, 87, 83, 78, 80, 81, 84, 87, 83, 84, 84, 91, 94, 106, 117, 115, 121, 134, 125, 116, 134, 127, 120, 125, 134, 126, 127, 118, 115, 104, 97, 86, 92, 92, 117, 130, 147, 164, 165, 156, 158, 144, 121, 114, 105, 88, 102, 97, 94, 89, 86, 87, 122, 149, 155, 157, 164, 141, 118, 116, 124, 106, 109, 118, 125, 124, 135, 135, 127, 121, 119, 113, 115, 119, 129, 119, 113, 107, 108, 94, 103, 101, 98, 97, 95, 89, 84, 94, 99},
{307, 359, 373, 335, 333, 334, 284, 305, 298, 298, 325, 306, 285, 282, 311, 284, 286, 265, 288, 285, 281, 277, 305, 331, 327, 360, 372, 360, 343, 333, 308, 300, 310, 329, 311, 319, 339, 385, 349, 342, 356, 347, 275, 307, 321, 357, 341, 361, 361, 372, 317, 317, 309, 293, 264, 271, 303, 298, 285, 296, 276, 267, 275, 270, 301, 344, 370, 357, 363, 345, 307, 270, 313, 310, 294, 367, 401, 412, 409, 481, 433, 418, 382, 380, 286, 268, 236, 233, 257, 270, 279, 274, 283, 259, 279, 321, 323, 301, 374, 373},
{285, 332, 353, 321, 351, 386, 355, 383, 388, 375, 366, 351, 314, 312, 282, 283, 298, 261, 284, 306, 317, 319, 334, 321, 327, 295, 278, 255, 273, 252, 248, 250, 288, 306, 304, 320, 347, 372, 367, 371, 364, 346, 304, 284, 289, 316, 314, 318, 324, 310, 294, 315, 307, 311, 324, 302, 280, 277, 267, 294, 310, 328, 320, 296, 254, 241, 230, 233, 239, 250, 240, 244, 280, 281, 272, 292, 292, 260, 301, 319, 309, 307, 316, 286, 264, 278, 255, 245, 245, 266, 247, 248, 241, 233, 231, 310, 304, 296, 289, 285}}

// 22 Reading of the 8 sensors, 100 samples per sensor
{{268, 277, 274, 255, 258, 267, 242, 273, 262, 258, 250, 259, 229, 215, 220, 220, 205, 275, 282, 275, 270, 294, 236, 262, 263, 262, 294, 318, 295, 299, 292, 241, 212, 236, 225, 230, 208, 193, 169, 195, 194, 199, 225, 216, 190, 176, 202, 184, 180, 193, 197, 195, 190, 189, 169, 193, 177, 181, 182, 196, 163, 189, 206, 214, 232, 239, 219, 198, 209, 189, 196, 194, 217, 206, 211, 198, 196, 158, 148, 134, 155, 158, 175, 182, 208, 199, 225, 224, 226, 238, 273, 273, 266, 269, 255, 239, 210, 219, 208, 191},
{425, 439, 442, 450, 422, 436, 412, 383, 340, 335, 289, 260, 269, 246, 274, 292, 304, 362, 366, 351, 361, 384, 330, 351, 371, 343, 372, 392, 402, 369, 371, 301, 265, 255, 277, 308, 298, 297, 291, 297, 255, 275, 324, 316, 312, 328, 320, 266, 259, 268, 251, 270, 264, 259, 243, 319, 298, 311, 304, 293, 211, 248, 254, 298, 308, 313, 303, 302, 294, 284, 319, 301, 322, 305, 312, 284, 301, 277, 288, 270, 273, 269, 276, 311, 320, 315, 325, 386, 334, 365, 383, 363, 278, 298, 347, 358, 369, 371, 372, 292},
{339, 330, 333, 360, 432, 533, 568, 581, 576, 550, 493, 462, 487, 509, 510, 442, 458, 477, 470, 439, 489, 484, 424, 399, 442, 432, 437, 431, 439, 390, 364, 365, 436, 428, 449, 442, 426, 388, 420, 420, 418, 396, 414, 382, 353, 332, 401, 367, 365, 384, 422, 444, 504, 523, 506, 529, 458, 376, 394, 411, 365, 428, 428, 402, 384, 374, 407, 474, 486, 479, 527, 503, 454, 443, 510, 449, 402, 376, 360, 320, 359, 343, 378, 418, 392, 372, 383, 339, 323, 317, 308, 294, 300, 354, 361, 372, 381, 399, 327, 331},
{250, 252, 244, 283, 302, 343, 348, 340, 318, 279, 231, 225, 231, 222, 241, 226, 262, 283, 276, 279, 326, 310, 308, 307, 308, 289, 308, 299, 298, 286, 276, 236, 320, 338, 389, 371, 371, 295, 278, 207, 272, 278, 278, 291, 296, 256, 288, 313, 317, 361, 368, 417, 424, 407, 397, 400, 373, 391, 396, 361, 412, 433, 416, 436, 440, 380, 295, 269, 247, 266, 265, 290, 359, 366, 393, 393, 375, 315, 287, 213, 205, 264, 299, 348, 360, 358, 310, 259, 188, 181, 187, 185, 200, 192, 231, 237, 232, 276, 291, 253},
{263, 265, 251, 268, 261, 273, 272, 274, 229, 206, 185, 180, 175, 171, 177, 180, 206, 209, 220, 227, 276, 267, 271, 261, 268, 221, 238, 229, 229, 208, 208, 181, 205, 213, 266, 251, 243, 221, 205, 163, 194, 205, 216, 239, 245, 227, 234, 248, 247, 282, 297, 323, 312, 296, 270, 283, 276, 310, 310, 296, 298, 302, 274, 287, 285, 260, 219, 199, 200, 204, 202, 201, 275, 295, 319, 325, 327, 286, 253, 196, 180, 201, 192, 209, 228, 224, 200, 187, 158, 145, 148, 143, 140, 148, 167, 196, 199, 225, 230, 226},
{86, 84, 92, 96, 94, 95, 99, 96, 89, 85, 93, 93, 91, 88, 98, 90, 83, 74, 83, 80, 85, 97, 106, 102, 102, 100, 96, 90, 84, 77, 78, 77, 75, 85, 87, 88, 85, 85, 76, 75, 76, 73, 78, 94, 97, 103, 104, 111, 103, 128, 133, 139, 130, 133, 114, 105, 97, 101, 101, 109, 106, 117, 113, 112, 102, 105, 91, 89, 87, 84, 80, 79, 95, 98, 108, 109, 111, 108, 98, 96, 93, 100, 89, 93, 85, 84, 71, 67, 59, 65, 63, 70, 74, 86, 89, 96, 98, 100, 104, 100},
{267, 291, 291, 264, 262, 257, 222, 253, 270, 297, 306, 295, 274, 261, 229, 232, 237, 229, 249, 295, 283, 298, 306, 277, 262, 284, 300, 303, 326, 304, 321, 312, 295, 324, 325, 305, 301, 314, 269, 274, 283, 273, 268, 282, 297, 305, 310, 307, 288, 370, 368, 367, 358, 358, 252, 248, 253, 281, 355, 366, 376, 380, 369, 301, 283, 246, 223, 233, 232, 230, 230, 233, 228, 217, 235, 235, 227, 284, 300, 323, 326, 363, 331, 330, 304, 299, 253, 238, 241, 229, 237, 244, 232, 248, 261, 287, 333, 337, 367, 355},
{252, 266, 254, 202, 184, 204, 193, 186, 189, 219, 214, 207, 239, 235, 205, 215, 220, 197, 266, 280, 259, 275, 281, 231, 228, 232, 241, 237, 257, 245, 269, 263, 258, 243, 259, 227, 219, 224, 215, 195, 259, 250, 240, 276, 292, 240, 236, 250, 201, 256, 304, 319, 314, 316, 269, 244, 226, 252, 261, 250, 250, 257, 232, 231, 246, 224, 204, 199, 178, 170, 184, 194, 196, 212, 229, 219, 211, 222, 230, 215, 227, 273, 268, 255, 244, 238, 203, 208, 219, 234, 230, 233, 220, 245, 242, 278, 265, 263, 257, 249}}

// 23 Reading of the 8 sensors, 100 samples per sensor
{{454, 447, 428, 428, 467, 471, 437, 490, 463, 399, 396, 408, 351, 372, 543, 598, 602, 617, 636, 552, 512, 530, 509, 462, 393, 388, 350, 425, 480, 510, 494, 497, 425, 396, 343, 322, 344, 347, 320, 332, 333, 299, 402, 388, 402, 389, 387, 280, 300, 266, 258, 244, 231, 221, 228, 270, 326, 332, 331, 350, 318, 287, 272, 254, 210, 212, 192, 215, 207, 212, 224, 243, 241, 251, 265, 263, 282, 307, 305, 328, 324, 297, 254, 271, 251, 261, 265, 267, 260, 245, 243, 225, 242, 233, 219, 205, 200, 189, 186, 234},
{797, 716, 665, 656, 606, 491, 490, 501, 472, 420, 524, 547, 574, 592, 675, 853, 850, 835, 876, 888, 716, 795, 811, 749, 721, 738, 641, 725, 788, 756, 737, 771, 674, 594, 561, 534, 541, 536, 553, 571, 510, 441, 446, 450, 528, 544, 564, 546, 513, 427, 412, 370, 355, 345, 353, 403, 464, 478, 479, 477, 509, 479, 450, 481, 507, 409, 413, 437, 442, 406, 421, 439, 413, 406, 402, 402, 398, 459, 416, 438, 443, 441, 386, 420, 395, 385, 376, 372, 366, 394, 425, 384, 415, 380, 358, 325, 318, 296, 304, 275},
{395, 405, 349, 313, 270, 267, 289, 319, 335, 330, 339, 363, 406, 403, 393, 432, 409, 376, 433, 488, 499, 539, 538, 510, 483, 465, 430, 445, 444, 417, 440, 437, 428, 411, 429, 395, 369, 349, 414, 392, 377, 392, 395, 323, 352, 365, 348, 361, 373, 340, 326, 338, 377, 380, 393, 436, 425, 406, 408, 420, 385, 373, 334, 398, 376, 341, 361, 351, 300, 305, 317, 344, 368, 323, 344, 334, 284, 262, 290, 272, 287, 313, 344, 324, 350, 331, 314, 288, 326, 297, 325, 322, 351, 320, 330, 310, 304, 259, 245, 241},
{292, 298, 290, 278, 285, 310, 326, 322, 320, 305, 307, 322, 370, 375, 348, 327, 307, 266, 390, 398, 421, 437, 450, 348, 330, 280, 279, 262, 257, 306, 315, 367, 352, 357, 322, 336, 253, 252, 266, 269, 322, 330, 360, 350, 359, 312, 311, 289, 316, 303, 297, 286, 289, 255, 263, 244, 227, 255, 248, 249, 260, 272, 235, 241, 251, 239, 232, 252, 248, 215, 281, 296, 283, 293, 305, 275, 332, 343, 345, 352, 346, 296, 344, 329, 317, 372, 368, 313, 320, 325, 249, 239, 251, 264, 279, 263, 266, 271, 249, 250},
{253, 250, 193, 169, 208, 230, 227, 230, 236, 219, 234, 251, 286, 308, 291, 271, 266, 241, 258, 265, 276, 270, 276, 241, 243, 224, 242, 239, 228, 241, 237, 243, 234, 247, 245, 258, 223, 224, 238, 222, 243, 269, 288, 269, 285, 259, 260, 249, 248, 233, 239, 212, 196, 195, 200, 215, 215, 244, 249, 242, 226, 230, 198, 192, 211, 207, 197, 204, 199, 226, 244, 258, 271, 289, 259, 252, 299, 291, 283, 290, 286, 276, 292, 278, 269, 329, 294, 278, 291, 290, 222, 212, 224, 217, 251, 228, 253, 238, 231, 228},
{89, 88, 78, 74, 97, 102, 108, 104, 104, 89, 84, 98, 106, 108, 105, 105, 93, 93, 105, 111, 110, 105, 97, 86, 88, 87, 88, 100, 96, 84, 86, 88, 80, 83, 92, 97, 92, 89, 98, 91, 97, 110, 110, 103, 115, 102, 100, 102, 99, 92, 93, 85, 85, 92, 91, 101, 102, 113, 110, 110, 105, 103, 90, 86, 80, 76, 83, 87, 95, 109, 109, 103, 96, 91, 81, 90, 113, 115, 118, 124, 124, 109, 107, 102, 92, 92, 89, 88, 97, 94, 86, 80, 94, 96, 106, 101, 105, 92, 82, 87},
{265, 250, 251, 259, 265, 252, 297, 294, 270, 273, 288, 304, 340, 360, 343, 351, 336, 323, 342, 366, 360, 347, 334, 306, 297, 314, 299, 311, 306, 280, 295, 293, 270, 306, 310, 282, 286, 291, 258, 310, 351, 349, 362, 356, 324, 264, 256, 244, 251, 262, 271, 263, 240, 246, 265, 268, 277, 289, 276, 237, 214, 215, 273, 264, 280, 289, 335, 328, 328, 323, 323, 272, 232, 245, 244, 236, 246, 240, 250, 250, 275, 282, 298, 296, 300, 347, 353, 341, 336, 318, 253, 226, 300, 311, 323, 325, 319, 266, 306, 298},
{270, 266, 228, 243, 247, 258, 299, 314, 309, 306, 314, 326, 321, 320, 368, 367, 343, 350, 352, 313, 288, 278, 250, 234, 257, 335, 340, 338, 337, 288, 247, 220, 235, 281, 298, 297, 338, 349, 317, 336, 314, 310, 302, 304, 296, 276, 246, 234, 229, 223, 251, 250, 232, 242, 232, 241, 256, 288, 294, 292, 300, 298, 298, 284, 285, 264, 279, 288, 280, 272, 294, 250, 255, 257, 281, 247, 273, 236, 243, 244, 246, 229, 225, 226, 225, 296, 340, 346, 365, 348, 299, 258, 273, 279, 272, 283, 276, 276, 263, 301}}

// 24 Reading of the 8 sensors, 100 samples per sensor
{{172, 165, 160, 133, 125, 142, 143, 151, 157, 153, 131, 132, 126, 125, 171, 180, 195, 205, 211, 171, 166, 164, 148, 152, 165, 168, 146, 167, 156, 142, 152, 187, 172, 173, 177, 176, 149, 145, 142, 143, 129, 129, 122, 120, 136, 140, 145, 156, 159, 139, 142, 127, 127, 132, 137, 135, 135, 132, 119, 118, 110, 121, 130, 155, 175, 179, 180, 175, 161, 134, 130, 128, 128, 125, 123, 124, 120, 145, 150, 174, 173, 190, 180, 184, 162, 173, 163, 157, 149, 150, 144, 134, 152, 157, 168, 172, 187, 176, 171, 166},
{277, 318, 327, 314, 289, 323, 283, 275, 265, 281, 250, 257, 250, 256, 241, 232, 256, 299, 284, 260, 275, 252, 194, 223, 247, 246, 234, 292, 300, 287, 293, 316, 274, 243, 250, 223, 205, 197, 207, 209, 219, 223, 248, 260, 261, 259, 256, 236, 234, 227, 219, 221, 221, 213, 210, 209, 203, 205, 186, 181, 184, 212, 243, 257, 267, 263, 229, 202, 203, 216, 215, 218, 206, 193, 171, 173, 171, 192, 200, 199, 198, 211, 216, 221, 211, 217, 204, 195, 203, 235, 284, 292, 293, 300, 302, 252, 261, 251, 226, 201},
{360, 356, 348, 305, 313, 292, 282, 277, 307, 292, 303, 291, 278, 246, 260, 245, 243, 242, 244, 202, 231, 251, 285, 353, 369, 375, 364, 382, 428, 421, 421, 424, 390, 274, 287, 288, 292, 309, 344, 335, 310, 305, 319, 276, 310, 293, 297, 263, 326, 305, 309, 308, 307, 293, 271, 340, 330, 331, 314, 346, 312, 316, 328, 304, 318, 301, 297, 294, 282, 284, 269, 305, 294, 317, 293, 304, 276, 291, 309, 299, 281, 296, 296, 280, 279, 297, 267, 251, 371, 392, 445, 468, 487, 462, 470, 439, 423, 473, 443, 418},
{198, 163, 149, 144, 181, 189, 197, 212, 206, 153, 154, 178, 213, 214, 212, 213, 205, 180, 181, 180, 172, 150, 137, 156, 159, 161, 173, 164, 141, 140, 132, 128, 114, 125, 140, 157, 173, 182, 194, 190, 179, 170, 161, 150, 179, 182, 177, 185, 229, 229, 239, 231, 231, 184, 149, 128, 131, 177, 190, 197, 206, 230, 199, 190, 192, 212, 186, 185, 204, 203, 169, 195, 202, 185, 196, 200, 204, 198, 197, 176, 191, 176, 175, 243, 255, 250, 245, 250, 190, 193, 185, 187, 182, 204, 192, 197, 201, 218, 220, 232},
{147, 118, 108, 103, 130, 137, 136, 157, 160, 127, 132, 166, 170, 168, 170, 173, 153, 140, 146, 145, 143, 131, 113, 110, 109, 101, 120, 136, 136, 134, 132, 131, 135, 149, 165, 180, 182, 179, 164, 149, 129, 130, 121, 148, 167, 168, 157, 157, 181, 191, 198, 196, 195, 162, 130, 121, 117, 127, 132, 131, 136, 168, 161, 158, 168, 180, 156, 157, 184, 180, 165, 177, 190, 159, 155, 158, 147, 134, 132, 126, 123, 136, 134, 231, 249, 253, 245, 249, 183, 164, 162, 186, 178, 178, 181, 190, 179, 215, 219, 220},
{66, 59, 62, 61, 71, 74, 73, 81, 79, 69, 72, 72, 68, 68, 72, 70, 77, 70, 69, 65, 64, 53, 53, 52, 47, 43, 49, 59, 61, 64, 65, 62, 54, 61, 66, 72, 71, 73, 67, 66, 65, 72, 71, 73, 75, 73, 67, 67, 67, 69, 68, 73, 75, 74, 70, 74, 69, 74, 72, 70, 70, 71, 66, 78, 77, 79, 75, 79, 69, 68, 63, 67, 63, 63, 63, 62, 60, 60, 61, 63, 64, 63, 60, 73, 76, 80, 77, 78, 79, 81, 76, 79, 83, 71, 62, 65, 73, 73, 80, 80},
{167, 160, 159, 176, 218, 233, 234, 253, 243, 221, 234, 236, 217, 208, 210, 199, 205, 209, 202, 188, 169, 160, 156, 182, 187, 179, 212, 216, 196, 207, 213, 180, 164, 167, 148, 154, 146, 151, 147, 144, 145, 153, 152, 157, 197, 195, 203, 210, 224, 201, 201, 225, 228, 211, 224, 218, 188, 216, 220, 190, 206, 204, 185, 220, 227, 215, 221, 199, 211, 211, 212, 218, 240, 193, 199, 198, 192, 168, 167, 193, 205, 199, 216, 241, 223, 209, 205, 215, 190, 178, 210, 217, 200, 204, 214, 185, 189, 183, 191, 187},
{204, 203, 205, 194, 201, 210, 180, 210, 224, 202, 198, 198, 174, 159, 187, 192, 198, 197, 195, 172, 168, 179, 165, 158, 163, 173, 171, 197, 206, 204, 190, 193, 179, 176, 212, 225, 208, 221, 224, 200, 188, 202, 188, 177, 185, 186, 185, 171, 199, 185, 180, 183, 201, 175, 185, 189, 176, 209, 204, 200, 216, 219, 174, 199, 196, 176, 186, 190, 173, 173, 176, 165, 167, 171, 173, 180, 183, 212, 206, 220, 238, 257, 251, 278, 276, 260, 262, 257, 223, 211, 209, 191, 183, 200, 206, 193, 192, 176, 176, 170}}

// 25 Reading of the 8 sensors, 100 samples per sensor
{{260, 284, 293, 268, 262, 229, 194, 179, 241, 226, 256, 256, 283, 241, 251, 235, 260, 218, 258, 264, 299, 308, 315, 312, 324, 289, 276, 287, 257, 241, 256, 262, 249, 236, 251, 237, 199, 227, 226, 234, 231, 231, 219, 231, 195, 184, 198, 172, 172, 187, 198, 200, 223, 213, 202, 195, 189, 193, 190, 186, 184, 179, 153, 162, 186, 180, 184, 195, 206, 191, 210, 199, 187, 174, 181, 170, 175, 187, 198, 187, 184, 219, 217, 213, 222, 227, 191, 190, 175, 175, 173, 170, 162, 181, 193, 189, 210, 213, 215, 236},
{391, 371, 371, 338, 279, 293, 305, 289, 322, 321, 360, 364, 383, 396, 424, 384, 390, 389, 388, 377, 409, 414, 396, 432, 428, 394, 381, 382, 298, 259, 319, 362, 419, 428, 434, 396, 349, 293, 365, 378, 376, 370, 363, 270, 239, 240, 293, 289, 298, 349, 392, 346, 348, 344, 314, 261, 274, 270, 250, 225, 203, 211, 189, 199, 257, 266, 330, 363, 369, 342, 356, 278, 231, 209, 253, 237, 244, 262, 301, 284, 271, 283, 331, 326, 314, 330, 336, 281, 253, 303, 296, 283, 300, 291, 227, 244, 254, 237, 277, 311},
{497, 470, 443, 418, 252, 286, 299, 325, 318, 400, 381, 368, 352, 409, 360, 365, 365, 376, 340, 325, 330, 332, 396, 394, 424, 432, 475, 450, 488, 482, 481, 443, 434, 415, 413, 461, 466, 450, 458, 438, 378, 366, 345, 296, 279, 283, 326, 328, 308, 299, 288, 229, 273, 268, 292, 279, 300, 295, 316, 309, 352, 342, 321, 364, 356, 365, 352, 365, 332, 349, 305, 319, 319, 299, 373, 359, 353, 332, 351, 261, 258, 308, 327, 313, 325, 325, 284, 272, 285, 313, 361, 388, 392, 392, 388, 434, 416, 401, 384, 360},
{375, 373, 284, 297, 332, 297, 299, 302, 289, 234, 235, 230, 234, 251, 247, 245, 257, 246, 292, 286, 310, 285, 289, 234, 242, 325, 359, 394, 416, 413, 342, 315, 327, 289, 295, 293, 296, 232, 236, 214, 207, 199, 204, 200, 197, 192, 187, 176, 207, 194, 192, 202, 221, 193, 221, 235, 229, 209, 213, 201, 187, 203, 211, 209, 244, 259, 278, 271, 283, 243, 241, 208, 214, 203, 206, 207, 199, 223, 222, 233, 227, 230, 203, 238, 237, 248, 271, 267, 224, 259, 244, 243, 277, 295, 277, 295, 280, 245, 231, 211},
{298, 292, 245, 259, 287, 261, 262, 258, 232, 213, 211, 186, 206, 215, 185, 187, 224, 210, 290, 303, 315, 287, 294, 225, 231, 258, 278, 307, 319, 302, 288, 281, 286, 265, 272, 251, 249, 212, 213, 189, 181, 186, 161, 156, 158, 163, 146, 143, 180, 185, 184, 212, 233, 200, 218, 232, 202, 178, 190, 179, 156, 178, 174, 177, 199, 213, 220, 224, 219, 189, 182, 149, 168, 168, 164, 159, 171, 163, 163, 209, 210, 210, 204, 226, 203, 211, 228, 222, 185, 196, 193, 171, 196, 214, 199, 196, 215, 204, 209, 202},
{114, 114, 103, 106, 104, 98, 96, 97, 91, 89, 94, 89, 97, 103, 101, 96, 101, 97, 107, 109, 114, 110, 120, 106, 103, 106, 116, 115, 126, 123, 122, 111, 95, 82, 85, 77, 94, 102, 103, 100, 97, 87, 85, 97, 100, 100, 96, 102, 93, 93, 103, 106, 101, 95, 97, 102, 99, 97, 101, 100, 86, 90, 86, 82, 84, 87, 84, 83, 77, 78, 78, 76, 76, 81, 78, 81, 87, 86, 87, 95, 92, 91, 92, 94, 90, 96, 93, 94, 103, 99, 113, 119, 120, 107, 117, 101, 97, 98, 105, 93},
{206, 221, 210, 227, 246, 289, 282, 279, 282, 260, 239, 238, 260, 253, 254, 254, 295, 288, 297, 302, 311, 302, 331, 322, 321, 337, 325, 346, 349, 379, 350, 337, 302, 289, 283, 284, 295, 299, 318, 307, 311, 299, 287, 317, 346, 360, 375, 387, 384, 357, 392, 395, 380, 363, 368, 322, 311, 363, 366, 370, 356, 403, 353, 343, 355, 358, 334, 371, 385, 360, 370, 344, 302, 301, 302, 313, 345, 335, 343, 370, 368, 358, 378, 380, 397, 385, 439, 466, 449, 428, 477, 425, 413, 416, 413, 386, 374, 360, 360, 334},
{289, 300, 327, 346, 349, 362, 346, 301, 284, 264, 285, 266, 299, 296, 288, 273, 350, 328, 356, 378, 381, 328, 356, 330, 319, 308, 303, 306, 286, 302, 285, 270, 263, 262, 295, 302, 322, 321, 328, 341, 356, 353, 338, 409, 385, 435, 465, 491, 468, 460, 410, 373, 351, 331, 352, 363, 378, 402, 385, 357, 334, 358, 350, 372, 457, 454, 438, 442, 444, 395, 417, 427, 390, 385, 374, 367, 358, 377, 389, 376, 369, 409, 403, 423, 500, 504, 492, 534, 496, 445, 458, 428, 388, 385, 365, 357, 355, 375, 408, 371}}

// 26 Reading of the 8 sensors, 100 samples per sensor
{{349, 287, 334, 346, 357, 367, 377, 323, 324, 300, 280, 273, 299, 264, 263, 282, 294, 274, 284, 335, 312, 301, 295, 317, 286, 284, 285, 280, 253, 225, 229, 220, 238, 223, 236, 238, 262, 235, 225, 198, 190, 155, 157, 169, 183, 194, 203, 229, 242, 280, 279, 271, 277, 267, 234, 221, 227, 204, 197, 185, 202, 188, 160, 168, 181, 171, 211, 221, 217, 214, 220, 205, 219, 211, 203, 193, 189, 191, 211, 220, 231, 238, 219, 206, 204, 201, 175, 180, 187, 177, 174, 170, 175, 182, 175, 188, 217, 237, 232, 236},
{488, 467, 402, 417, 437, 457, 453, 514, 531, 525, 497, 484, 442, 381, 356, 319, 344, 323, 356, 438, 422, 413, 404, 385, 328, 368, 368, 410, 397, 360, 347, 351, 356, 386, 393, 389, 382, 311, 282, 295, 272, 281, 309, 307, 303, 306, 326, 316, 324, 339, 324, 297, 292, 332, 351, 360, 395, 390, 354, 297, 294, 244, 245, 249, 254, 234, 246, 277, 298, 306, 335, 314, 312, 270, 254, 231, 272, 307, 396, 409, 415, 407, 357, 261, 264, 255, 230, 232, 235, 211, 240, 236, 290, 294, 293, 261, 279, 271, 265, 281},
{426, 383, 408, 333, 322, 379, 383, 486, 493, 513, 504, 506, 396, 394, 410, 422, 435, 447, 442, 421, 381, 430, 408, 414, 398, 406, 345, 368, 373, 374, 393, 393, 400, 385, 372, 341, 346, 319, 319, 381, 407, 464, 527, 531, 605, 592, 531, 465, 503, 450, 458, 487, 486, 436, 358, 331, 319, 323, 366, 330, 344, 324, 320, 287, 355, 344, 343, 362, 415, 472, 467, 449, 478, 430, 408, 416, 456, 417, 427, 375, 393, 397, 393, 411, 399, 432, 425, 409, 387, 389, 371, 346, 359, 357, 357, 325, 328, 346, 355, 368},
{284, 297, 301, 245, 219, 256, 266, 257, 247, 245, 204, 181, 192, 218, 211, 243, 247, 250, 244, 245, 231, 255, 277, 297, 303, 295, 278, 263, 245, 269, 306, 324, 324, 316, 287, 288, 273, 276, 275, 275, 250, 246, 282, 319, 332, 329, 321, 303, 252, 266, 250, 267, 246, 274, 236, 258, 259, 277, 261, 264, 282, 293, 263, 266, 287, 275, 271, 284, 274, 252, 219, 196, 198, 199, 218, 297, 350, 377, 383, 377, 339, 322, 281, 321, 326, 355, 317, 322, 301, 308, 274, 308, 299, 299, 292, 278, 254, 270, 256, 268},
{232, 247, 250, 237, 216, 244, 235, 215, 204, 213, 180, 187, 207, 220, 209, 224, 218, 205, 211, 224, 202, 216, 250, 256, 244, 253, 253, 223, 217, 275, 282, 300, 301, 292, 250, 250, 222, 217, 213, 211, 219, 229, 271, 305, 303, 288, 268, 248, 208, 203, 199, 207, 202, 204, 196, 212, 238, 246, 243, 243, 266, 256, 232, 229, 249, 217, 222, 231, 234, 209, 199, 173, 164, 151, 183, 224, 246, 262, 267, 254, 273, 294, 283, 303, 302, 287, 243, 235, 212, 239, 213, 266, 269, 294, 267, 262, 215, 212, 193, 224},
{103, 98, 101, 100, 92, 102, 101, 92, 90, 91, 81, 91, 97, 98, 100, 108, 107, 109, 107, 115, 105, 109, 110, 114, 103, 104, 102, 99, 102, 117, 119, 115, 108, 100, 85, 88, 81, 88, 93, 92, 93, 105, 103, 100, 99, 94, 79, 86, 89, 89, 89, 91, 94, 92, 90, 92, 95, 92, 96, 95, 92, 88, 80, 76, 89, 89, 102, 100, 103, 93, 102, 93, 94, 91, 90, 89, 94, 101, 100, 100, 114, 116, 108, 110, 118, 97, 87, 92, 91, 90, 89, 95, 98, 109, 100, 101, 105, 103, 88, 99},
{365, 345, 301, 254, 263, 261, 249, 263, 246, 285, 331, 321, 308, 336, 308, 268, 275, 265, 235, 261, 261, 308, 339, 352, 339, 350, 308, 353, 357, 367, 354, 355, 319, 343, 327, 341, 337, 311, 285, 323, 350, 392, 400, 408, 374, 352, 319, 349, 352, 377, 372, 362, 342, 308, 298, 350, 364, 342, 373, 391, 357, 340, 366, 357, 354, 358, 394, 377, 373, 364, 335, 337, 329, 372, 380, 437, 411, 426, 398, 373, 319, 309, 348, 340, 393, 389, 433, 415, 404, 358, 358, 331, 302, 309, 314, 355, 343, 345, 343, 337},
{340, 277, 323, 335, 360, 372, 360, 316, 311, 308, 300, 304, 292, 308, 294, 309, 328, 338, 319, 335, 290, 273, 356, 368, 360, 368, 391, 370, 390, 390, 384, 353, 308, 276, 243, 269, 274, 289, 282, 322, 415, 419, 396, 403, 385, 302, 288, 355, 354, 410, 400, 403, 350, 345, 278, 286, 295, 304, 320, 308, 269, 254, 263, 235, 292, 319, 335, 326, 344, 317, 304, 310, 311, 365, 375, 395, 380, 399, 329, 341, 360, 385, 368, 414, 405, 377, 370, 388, 343, 314, 301, 305, 285, 283, 284, 300, 292, 303, 325, 349}}

// 27 Reading of the 8 sensors, 100 samples per sensor
{{277, 279, 279, 307, 313, 305, 284, 248, 202, 168, 154, 158, 161, 174, 186, 194, 203, 209, 223, 219, 210, 205, 205, 172, 167, 187, 234, 239, 278, 284, 283, 238, 232, 179, 210, 219, 221, 215, 217, 213, 191, 202, 199, 202, 184, 186, 183, 195, 231, 233, 252, 265, 271, 266, 268, 256, 249, 240, 203, 214, 210, 202, 195, 202, 176, 156, 178, 190, 204, 212, 233, 228, 218, 209, 222, 215, 207, 219, 254, 257, 257, 258, 256, 225, 206, 212, 241, 237, 230, 222, 225, 212, 227, 233, 235, 210, 184, 175, 161, 177},
{513, 478, 473, 374, 399, 356, 367, 367, 376, 337, 368, 384, 369, 378, 384, 343, 313, 303, 298, 281, 283, 289, 303, 311, 311, 358, 371, 380, 381, 383, 358, 338, 322, 315, 334, 360, 361, 348, 318, 354, 317, 307, 322, 324, 262, 279, 361, 371, 419, 463, 459, 417, 427, 407, 362, 375, 359, 347, 327, 337, 309, 304, 277, 270, 254, 256, 258, 258, 292, 294, 298, 328, 329, 294, 338, 341, 344, 343, 338, 293, 290, 255, 248, 266, 268, 257, 258, 264, 258, 251, 274, 297, 308, 326, 342, 329, 321, 314, 284, 263},
{411, 419, 387, 340, 314, 291, 298, 325, 299, 335, 337, 318, 296, 324, 315, 297, 364, 372, 361, 334, 381, 372, 349, 350, 372, 347, 303, 324, 328, 288, 265, 283, 260, 291, 294, 314, 371, 403, 369, 370, 347, 256, 240, 258, 266, 310, 343, 365, 367, 410, 394, 362, 317, 311, 301, 299, 307, 341, 332, 289, 275, 288, 270, 297, 299, 311, 312, 334, 309, 343, 327, 321, 301, 297, 262, 289, 269, 256, 264, 250, 218, 245, 276, 271, 254, 261, 264, 215, 210, 262, 254, 244, 268, 275, 277, 272, 267, 257, 252, 226},
{243, 265, 245, 229, 222, 257, 232, 228, 220, 222, 172, 197, 248, 263, 259, 266, 257, 206, 191, 191, 199, 166, 172, 173, 213, 202, 204, 208, 200, 202, 203, 208, 195, 237, 227, 251, 262, 325, 303, 302, 276, 294, 249, 258, 260, 276, 265, 248, 278, 280, 280, 273, 314, 274, 304, 314, 304, 274, 271, 264, 261, 256, 235, 253, 204, 180, 193, 204, 182, 189, 188, 221, 248, 245, 264, 270, 241, 234, 264, 243, 243, 245, 236, 228, 212, 203, 197, 194, 164, 179, 215, 222, 229, 236, 246, 242, 265, 246, 238, 237},
{233, 221, 214, 221, 212, 233, 230, 233, 208, 214, 175, 167, 188, 216, 227, 226, 230, 208, 186, 174, 170, 146, 141, 136, 151, 152, 153, 162, 158, 188, 214, 224, 222, 239, 215, 203, 205, 257, 254, 267, 254, 279, 256, 245, 239, 255, 231, 206, 225, 229, 221, 209, 227, 210, 224, 235, 233, 227, 226, 211, 216, 216, 193, 204, 182, 151, 159, 182, 166, 191, 202, 224, 227, 226, 219, 226, 214, 215, 235, 227, 213, 203, 208, 206, 197, 204, 203, 210, 193, 204, 204, 205, 180, 174, 168, 187, 196, 197, 197, 207},
{100, 92, 86, 87, 77, 92, 94, 98, 90, 94, 80, 75, 71, 75, 88, 85, 93, 102, 100, 88, 86, 78, 72, 71, 71, 76, 76, 73, 74, 87, 90, 95, 95, 101, 95, 96, 95, 108, 106, 108, 99, 110, 101, 98, 95, 106, 91, 82, 89, 93, 87, 92, 100, 95, 95, 93, 87, 78, 74, 75, 84, 85, 83, 89, 79, 68, 67, 75, 73, 81, 84, 86, 85, 81, 82, 78, 83, 90, 97, 87, 93, 84, 81, 76, 77, 70, 81, 82, 80, 83, 87, 94, 93, 94, 95, 96, 82, 78, 81, 82},
{242, 247, 249, 199, 197, 284, 307, 327, 346, 345, 291, 261, 299, 268, 281, 277, 279, 269, 273, 256, 251, 288, 248, 242, 254, 265, 232, 254, 259, 272, 265, 284, 276, 304, 289, 291, 263, 251, 219, 205, 186, 180, 162, 158, 162, 191, 202, 205, 240, 256, 244, 230, 306, 304, 287, 286, 301, 225, 195, 194, 199, 184, 176, 200, 223, 230, 225, 242, 232, 231, 224, 276, 285, 277, 257, 269, 241, 223, 218, 236, 216, 198, 190, 182, 190, 192, 199, 202, 229, 214, 228, 252, 258, 244, 241, 226, 202, 199, 219, 228},
{244, 234, 230, 212, 225, 257, 271, 274, 302, 295, 296, 282, 288, 246, 267, 246, 252, 265, 269, 243, 248, 259, 249, 235, 232, 230, 237, 226, 248, 252, 258, 239, 249, 244, 278, 264, 263, 254, 243, 223, 222, 228, 225, 240, 226, 247, 235, 244, 268, 269, 261, 251, 257, 258, 272, 251, 261, 236, 185, 172, 184, 185, 191, 203, 194, 178, 167, 214, 230, 258, 268, 298, 266, 261, 226, 265, 250, 262, 274, 280, 261, 251, 230, 202, 211, 192, 196, 206, 224, 203, 205, 239, 241, 237, 246, 240, 213, 211, 213, 237}}

// 28 Reading of the 8 sensors, 100 samples per sensor
{{235, 221, 186, 166, 206, 221, 223, 229, 273, 254, 256, 250, 251, 202, 193, 166, 173, 171, 179, 188, 182, 185, 216, 218, 221, 271, 270, 243, 252, 258, 204, 197, 195, 187, 176, 188, 179, 210, 218, 211, 206, 213, 200, 185, 171, 174, 163, 135, 118, 134, 147, 157, 160, 159, 144, 151, 152, 160, 173, 170, 138, 145, 143, 153, 182, 183, 187, 212, 219, 213, 237, 225, 201, 182, 192, 175, 176, 179, 180, 174, 164, 166, 165, 159, 143, 141, 148, 166, 164, 155, 152, 152, 133, 143, 148, 143, 143, 131, 118, 122},
{372, 358, 320, 300, 319, 319, 346, 341, 410, 400, 444, 409, 413, 361, 346, 265, 253, 237, 238, 256, 262, 292, 304, 303, 292, 333, 318, 298, 300, 313, 270, 246, 269, 282, 291, 315, 307, 320, 289, 262, 231, 235, 231, 247, 269, 303, 294, 265, 270, 271, 251, 257, 249, 244, 223, 232, 243, 253, 248, 274, 241, 267, 260, 276, 263, 255, 211, 321, 330, 316, 344, 343, 239, 233, 295, 284, 303, 321, 310, 278, 267, 249, 243, 230, 208, 220, 230, 236, 244, 230, 219, 207, 184, 198, 209, 202, 215, 221, 205, 200},
{341, 395, 444, 465, 439, 431, 385, 409, 392, 381, 447, 433, 364, 419, 448, 381, 416, 399, 382, 345, 343, 387, 448, 434, 441, 432, 366, 312, 293, 313, 335, 335, 315, 330, 313, 298, 296, 294, 277, 274, 284, 298, 313, 299, 341, 353, 343, 357, 370, 344, 339, 352, 321, 334, 357, 325, 312, 328, 342, 305, 326, 350, 368, 330, 347, 345, 310, 362, 399, 376, 367, 383, 334, 321, 335, 333, 366, 327, 297, 274, 277, 203, 195, 225, 274, 317, 310, 319, 318, 280, 230, 245, 290, 277, 320, 315, 377, 358, 343, 315},
{175, 152, 183, 187, 174, 182, 197, 180, 182, 205, 223, 228, 216, 225, 208, 199, 194, 195, 203, 215, 210, 207, 228, 206, 182, 165, 154, 119, 134, 158, 176, 174, 179, 193, 177, 189, 191, 185, 175, 239, 238, 238, 238, 231, 177, 162, 160, 239, 247, 234, 260, 261, 196, 203, 227, 199, 194, 201, 197, 188, 219, 227, 222, 226, 228, 220, 223, 236, 230, 238, 234, 249, 251, 254, 238, 227, 197, 249, 240, 232, 244, 245, 171, 188, 193, 160, 175, 175, 163, 174, 176, 161, 171, 155, 132, 141, 160, 159, 171, 181},
{136, 129, 150, 150, 134, 144, 151, 149, 150, 162, 171, 184, 171, 183, 176, 172, 167, 181, 194, 209, 216, 206, 196, 168, 149, 130, 131, 140, 140, 135, 144, 145, 133, 145, 145, 139, 141, 140, 147, 182, 185, 187, 190, 183, 158, 146, 144, 175, 168, 159, 172, 177, 143, 161, 173, 169, 167, 191, 180, 184, 196, 197, 180, 180, 182, 182, 177, 184, 177, 185, 184, 210, 220, 228, 215, 213, 185, 207, 213, 201, 228, 229, 186, 195, 203, 157, 165, 168, 155, 167, 164, 162, 172, 164, 149, 156, 151, 150, 140, 146},
{62, 58, 64, 61, 59, 60, 66, 61, 64, 69, 78, 81, 80, 78, 75, 71, 70, 70, 74, 77, 74, 68, 64, 62, 57, 57, 55, 52, 48, 48, 49, 48, 50, 61, 60, 61, 64, 65, 66, 73, 72, 72, 79, 72, 68, 68, 65, 68, 70, 77, 76, 77, 65, 69, 69, 72, 80, 83, 77, 70, 72, 67, 77, 78, 82, 86, 83, 77, 79, 77, 68, 78, 76, 75, 78, 80, 71, 70, 72, 66, 74, 71, 71, 72, 71, 57, 60, 57, 51, 48, 56, 60, 61, 62, 66, 60, 54, 59, 57, 55},
{138, 133, 128, 124, 132, 157, 160, 156, 159, 137, 112, 109, 128, 128, 136, 153, 157, 146, 151, 153, 138, 134, 149, 151, 159, 162, 163, 152, 152, 135, 126, 131, 128, 121, 116, 114, 112, 106, 107, 131, 132, 136, 153, 156, 138, 153, 143, 127, 119, 133, 119, 132, 128, 144, 141, 138, 130, 133, 132, 142, 139, 148, 166, 157, 152, 159, 144, 136, 169, 181, 188, 216, 215, 193, 189, 183, 155, 144, 140, 149, 163, 162, 172, 169, 154, 139, 140, 133, 148, 144, 148, 172, 184, 178, 181, 174, 146, 150, 150, 149},
{175, 160, 125, 123, 150, 153, 157, 158, 162, 127, 117, 111, 112, 108, 116, 125, 125, 134, 148, 138, 127, 124, 136, 120, 128, 147, 144, 125, 138, 136, 119, 121, 125, 121, 109, 116, 129, 131, 138, 156, 153, 145, 169, 176, 165, 167, 164, 146, 136, 138, 140, 138, 125, 111, 115, 124, 134, 133, 150, 145, 130, 127, 133, 124, 130, 150, 151, 165, 157, 174, 163, 168, 154, 158, 147, 149, 141, 143, 135, 145, 163, 166, 169, 171, 165, 139, 144, 137, 140, 119, 124, 125, 160, 164, 176, 174, 165, 135, 143, 150}}

// 29 Reading of the 8 sensors, 100 samples per sensor
{{282, 258, 241, 204, 261, 312, 329, 330, 330, 317, 279, 277, 298, 304, 292, 281, 287, 249, 244, 218, 211, 169, 205, 244, 288, 317, 327, 325, 290, 266, 231, 234, 257, 258, 236, 235, 235, 183, 194, 195, 203, 189, 183, 193, 209, 211, 204, 219, 198, 214, 203, 224, 221, 236, 206, 253, 254, 239, 245, 245, 205, 238, 263, 245, 245, 245, 193, 162, 183, 192, 202, 224, 232, 234, 229, 211, 197, 199, 168, 162, 187, 183, 175, 195, 195, 179, 178, 190, 197, 208, 214, 211, 214, 210, 233, 230, 240, 234, 217, 185},
{414, 427, 390, 364, 374, 364, 426, 406, 400, 378, 358, 312, 333, 340, 417, 428, 415, 435, 435, 358, 365, 345, 363, 353, 431, 474, 502, 465, 467, 408, 353, 307, 378, 385, 391, 379, 382, 329, 349, 317, 372, 379, 365, 336, 369, 329, 328, 329, 338, 295, 274, 263, 308, 320, 330, 345, 365, 311, 324, 347, 347, 346, 368, 342, 314, 305, 279, 258, 270, 285, 294, 311, 310, 364, 365, 353, 335, 331, 249, 218, 212, 232, 248, 273, 281, 270, 280, 289, 261, 262, 280, 249, 243, 245, 252, 237, 242, 233, 234, 266},
{286, 288, 287, 292, 348, 347, 305, 350, 356, 327, 330, 331, 286, 295, 256, 286, 288, 303, 351, 413, 417, 444, 447, 443, 444, 486, 501, 509, 513, 497, 439, 435, 454, 431, 407, 422, 465, 432, 428, 445, 449, 369, 383, 364, 347, 345, 349, 407, 521, 515, 529, 534, 514, 400, 460, 437, 429, 416, 428, 363, 353, 369, 345, 353, 350, 354, 335, 408, 424, 474, 470, 484, 432, 411, 463, 492, 483, 465, 496, 389, 382, 403, 424, 387, 422, 384, 357, 334, 326, 283, 284, 270, 289, 284, 281, 275, 308, 324, 346, 334},
{219, 219, 205, 226, 222, 234, 279, 296, 324, 339, 340, 303, 288, 245, 226, 212, 237, 273, 297, 297, 282, 276, 302, 318, 328, 359, 373, 345, 340, 327, 301, 311, 302, 303, 305, 297, 271, 255, 217, 228, 254, 337, 403, 401, 457, 451, 433, 382, 393, 386, 385, 368, 374, 353, 338, 350, 328, 318, 334, 306, 303, 280, 303, 309, 289, 294, 327, 321, 317, 339, 385, 374, 386, 376, 381, 360, 355, 313, 348, 325, 314, 316, 333, 316, 309, 264, 253, 250, 244, 300, 300, 305, 289, 278, 222, 244, 289, 299, 300, 305},
{201, 194, 179, 207, 194, 193, 221, 227, 249, 268, 279, 254, 252, 221, 216, 229, 261, 293, 289, 286, 267, 244, 254, 299, 302, 301, 338, 304, 284, 278, 275, 255, 254, 225, 227, 229, 194, 184, 181, 195, 186, 238, 276, 278, 324, 331, 359, 348, 375, 373, 387, 352, 341, 303, 314, 296, 283, 290, 290, 259, 253, 236, 274, 313, 279, 292, 310, 287, 258, 263, 258, 250, 253, 246, 261, 274, 270, 238, 274, 266, 258, 264, 265, 245, 243, 220, 210, 226, 214, 226, 223, 219, 211, 225, 207, 224, 274, 280, 261, 258},
{80, 80, 79, 86, 80, 80, 84, 84, 89, 93, 103, 101, 98, 95, 97, 81, 87, 96, 90, 89, 95, 92, 80, 100, 100, 101, 111, 116, 101, 101, 94, 86, 79, 77, 84, 93, 88, 88, 91, 86, 72, 80, 83, 86, 102, 113, 126, 125, 125, 126, 131, 119, 124, 121, 121, 109, 102, 99, 98, 84, 89, 87, 97, 102, 96, 97, 108, 105, 106, 105, 101, 90, 90, 90, 96, 101, 105, 102, 108, 109, 107, 105, 97, 87, 83, 75, 75, 83, 80, 85, 85, 84, 78, 82, 87, 95, 102, 106, 106, 95},
{266, 264, 261, 266, 263, 208, 212, 210, 195, 219, 246, 239, 234, 244, 225, 207, 216, 231, 247, 238, 254, 244, 232, 267, 300, 311, 318, 327, 323, 286, 253, 257, 253, 217, 232, 227, 218, 224, 231, 226, 241, 276, 256, 277, 292, 313, 294, 307, 277, 277, 275, 258, 266, 274, 264, 248, 246, 239, 266, 304, 323, 331, 337, 301, 261, 233, 244, 240, 320, 324, 342, 339, 330, 304, 299, 274, 267, 291, 258, 268, 260, 264, 258, 255, 253, 275, 279, 323, 325, 323, 325, 319, 268, 267, 300, 275, 322, 337, 334, 327},
{301, 315, 316, 282, 285, 244, 213, 223, 223, 233, 243, 244, 235, 250, 244, 227, 222, 226, 223, 213, 241, 235, 230, 275, 283, 303, 309, 306, 287, 272, 251, 266, 270, 249, 263, 250, 241, 236, 238, 235, 231, 237, 226, 219, 235, 246, 223, 231, 243, 265, 275, 282, 311, 304, 267, 255, 266, 224, 243, 260, 247, 258, 271, 256, 247, 242, 250, 241, 255, 245, 286, 256, 262, 240, 256, 268, 276, 292, 293, 321, 268, 266, 269, 265, 249, 310, 301, 290, 287, 275, 207, 273, 282, 310, 307, 309, 267, 276, 264, 260}}

// 30 Reading of the 8 sensors, 100 samples per sensor
{{235, 223, 214, 194, 195, 169, 175, 183, 215, 208, 223, 207, 195, 171, 168, 165, 170, 189, 187, 180, 204, 198, 194, 188, 186, 159, 203, 225, 240, 239, 236, 216, 200, 208, 216, 209, 211, 217, 197, 185, 192, 178, 171, 167, 165, 155, 155, 147, 153, 172, 191, 186, 173, 169, 159, 153, 177, 177, 181, 179, 166, 147, 143, 145, 171, 195, 217, 221, 230, 228, 225, 213, 227, 215, 211, 194, 175, 157, 158, 139, 137, 156, 149, 146, 147, 157, 145, 147, 167, 157, 174, 176, 191, 170, 176, 158, 154, 145, 143, 135},
{313, 352, 371, 372, 357, 358, 325, 318, 324, 298, 290, 270, 311, 318, 325, 318, 331, 305, 318, 300, 308, 312, 285, 300, 356, 348, 387, 385, 378, 340, 349, 300, 310, 296, 294, 296, 350, 397, 392, 386, 411, 373, 332, 319, 324, 293, 283, 269, 279, 260, 235, 242, 230, 227, 251, 282, 267, 265, 250, 268, 258, 281, 276, 271, 282, 283, 265, 268, 273, 272, 262, 289, 287, 293, 293, 293, 266, 265, 257, 214, 206, 229, 227, 223, 240, 235, 202, 213, 228, 213, 227, 264, 284, 279, 280, 288, 253, 224, 212, 211},
{358, 333, 319, 336, 323, 350, 353, 352, 345, 337, 312, 302, 326, 283, 256, 249, 250, 238, 244, 240, 287, 306, 314, 336, 336, 293, 268, 245, 245, 260, 246, 257, 288, 274, 271, 276, 275, 249, 257, 239, 329, 318, 322, 326, 332, 238, 264, 269, 250, 258, 298, 278, 261, 282, 269, 231, 228, 237, 212, 212, 198, 215, 203, 226, 218, 214, 232, 274, 299, 317, 342, 363, 329, 285, 270, 249, 202, 241, 246, 248, 251, 288, 265, 298, 325, 326, 312, 305, 278, 239, 234, 208, 215, 241, 261, 284, 281, 293, 289, 295},
{101, 115, 129, 165, 183, 190, 196, 190, 185, 183, 199, 191, 204, 188, 189, 192, 196, 208, 200, 194, 183, 180, 169, 178, 176, 170, 169, 162, 190, 187, 187, 212, 214, 193, 199, 216, 192, 197, 208, 200, 191, 217, 202, 198, 203, 189, 150, 165, 156, 153, 153, 165, 163, 179, 183, 196, 201, 191, 185, 185, 168, 180, 190, 186, 177, 181, 158, 154, 168, 185, 209, 227, 223, 211, 209, 183, 154, 148, 176, 169, 178, 209, 215, 210, 224, 234, 217, 218, 198, 184, 169, 180, 176, 192, 194, 205, 189, 180, 168, 212},
{121, 129, 130, 143, 160, 162, 158, 152, 161, 149, 166, 182, 195, 183, 200, 191, 178, 190, 182, 164, 168, 182, 175, 178, 182, 177, 156, 143, 155, 152, 143, 174, 178, 173, 164, 171, 143, 175, 182, 178, 182, 214, 196, 191, 196, 201, 168, 156, 156, 156, 150, 151, 168, 178, 189, 196, 202, 189, 193, 188, 179, 183, 180, 163, 159, 151, 138, 135, 154, 166, 180, 195, 202, 187, 184, 177, 158, 147, 167, 155, 174, 185, 190, 186, 185, 176, 165, 165, 157, 168, 157, 168, 164, 156, 150, 157, 140, 133, 143, 196},
{66, 68, 64, 60, 56, 60, 61, 62, 64, 67, 69, 66, 73, 71, 80, 83, 88, 88, 89, 86, 86, 86, 88, 85, 85, 88, 86, 80, 82, 80, 79, 78, 81, 84, 77, 67, 62, 69, 71, 73, 77, 88, 83, 80, 81, 82, 69, 72, 74, 73, 69, 73, 73, 72, 79, 81, 80, 76, 72, 66, 66, 72, 79, 82, 84, 86, 79, 74, 72, 73, 75, 77, 76, 73, 76, 75, 78, 80, 82, 74, 71, 69, 73, 77, 81, 85, 81, 79, 71, 76, 73, 76, 72, 72, 68, 63, 61, 64, 75, 82},
{163, 163, 172, 148, 160, 142, 148, 136, 160, 153, 181, 180, 187, 179, 176, 148, 167, 159, 152, 167, 181, 162, 174, 178, 198, 192, 193, 178, 179, 147, 173, 169, 211, 227, 232, 224, 220, 189, 197, 186, 204, 214, 206, 182, 200, 161, 178, 198, 212, 217, 223, 207, 209, 203, 192, 205, 208, 194, 184, 176, 156, 174, 179, 179, 179, 181, 157, 154, 161, 171, 186, 190, 185, 179, 212, 204, 199, 215, 215, 171, 154, 171, 191, 195, 215, 219, 223, 192, 180, 167, 166, 151, 164, 176, 186, 198, 198, 183, 179, 155},
{198, 230, 232, 217, 222, 227, 207, 199, 204, 181, 169, 143, 151, 182, 180, 160, 163, 191, 164, 187, 190, 186, 175, 174, 170, 180, 183, 165, 190, 181, 169, 159, 164, 152, 151, 156, 166, 182, 200, 196, 213, 211, 198, 174, 169, 143, 139, 136, 146, 168, 171, 178, 199, 194, 196, 206, 210, 191, 186, 172, 160, 191, 194, 194, 213, 233, 196, 195, 193, 182, 166, 180, 169, 174, 174, 184, 173, 218, 215, 202, 188, 198, 158, 167, 169, 168, 178, 176, 170, 167, 183, 164, 153, 142, 176, 156, 161, 168, 191, 159}}

// 31 Reading of the 8 sensors, 100 samples per sensor
