EMG data generated by the Myo Armband in response to different hand gestures used to control a prosthesis.
EMG data of the Myo Armband for the hand gesture that generates the hook grasp in the prosthesis.

// 1 Reading of the 8 sensors, 100 samples per sensor
{{597, 665, 679, 754, 847, 906, 893, 941, 924, 901, 805, 769, 825, 871, 863, 926, 927, 820, 754, 702, 684, 709, 698, 698, 692, 673, 661, 647, 689, 705, 677, 660, 783, 720, 720, 750, 734, 616, 674, 674, 635, 674, 653, 592, 556, 627, 582, 544, 515, 519, 569, 630, 658, 694, 767, 693, 636, 629, 585, 474, 442, 448, 454, 462, 479, 440, 468, 476, 481, 480, 483, 435, 437, 458, 472, 490, 500, 502, 472, 469, 444, 434, 471, 563, 571, 570, 589, 552, 474, 448, 453, 437, 410, 442, 418, 425, 419, 434, 384, 486},
{136, 139, 156, 173, 186, 208, 216, 232, 231, 228, 207, 199, 187, 212, 210, 225, 262, 261, 239, 225, 212, 180, 162, 149, 142, 139, 139, 146, 146, 140, 139, 123, 124, 133, 146, 162, 152, 159, 154, 147, 142, 143, 135, 136, 135, 123, 129, 116, 122, 121, 124, 123, 124, 105, 107, 99, 82, 92, 92, 91, 107, 109, 98, 99, 101, 81, 87, 96, 104, 104, 102, 100, 96, 99, 90, 93, 94, 96, 84, 89, 89, 81, 94, 110, 111, 112, 114, 104, 91, 94, 98, 100, 92, 100, 103, 97, 97, 112, 106, 97},
{97, 98, 90, 94, 85, 92, 98, 101, 94, 104, 95, 90, 95, 105, 109, 106, 122, 123, 114, 103, 104, 85, 74, 71, 75, 75, 66, 72, 72, 61, 62, 70, 72, 75, 77, 83, 78, 75, 76, 74, 75, 75, 71, 71, 75, 67, 76, 75, 73, 78, 79, 68, 74, 73, 76, 74, 74, 69, 65, 55, 53, 52, 54, 54, 52, 55, 56, 58, 67, 68, 67, 70, 69, 62, 60, 71, 70, 70, 71, 73, 64, 63, 64, 69, 72, 71, 72, 68, 65, 63, 64, 68, 71, 75, 81, 83, 83, 84, 78, 70},
{87, 84, 84, 97, 89, 93, 95, 95, 87, 91, 92, 92, 106, 116, 114, 112, 118, 112, 100, 99, 104, 95, 98, 97, 91, 86, 84, 72, 69, 74, 72, 72, 78, 84, 82, 84, 82, 72, 67, 65, 63, 63, 62, 68, 70, 65, 64, 67, 68, 69, 76, 78, 82, 77, 73, 65, 61, 56, 56, 54, 57, 58, 52, 50, 51, 48, 51, 52, 55, 58, 59, 61, 65, 63, 62, 67, 63, 58, 56, 54, 50, 48, 56, 56, 54, 51, 53, 50, 55, 57, 59, 65, 70, 67, 71, 72, 66, 61, 60, 55},
{99, 96, 97, 124, 122, 124, 134, 130, 113, 134, 135, 134, 149, 155, 136, 137, 141, 134, 122, 115, 114, 108, 106, 104, 106, 101, 88, 77, 79, 80, 87, 91, 95, 98, 96, 99, 98, 93, 90, 90, 79, 76, 72, 81, 77, 75, 73, 72, 61, 71, 85, 86, 92, 92, 84, 78, 76, 71, 72, 72, 66, 71, 69, 65, 64, 59, 63, 63, 73, 73, 74, 67, 71, 65, 69, 77, 76, 73, 69, 63, 58, 61, 62, 63, 64, 62, 58, 59, 61, 59, 56, 57, 63, 59, 60, 61, 62, 56, 57, 58},
{282, 264, 238, 257, 248, 243, 261, 260, 236, 332, 359, 350, 368, 389, 309, 319, 310, 299, 273, 275, 235, 236, 231, 220, 213, 219, 211, 199, 229, 238, 250, 242, 247, 215, 208, 184, 196, 176, 176, 185, 196, 178, 192, 211, 196, 201, 207, 202, 176, 227, 226, 219, 222, 233, 186, 206, 210, 199, 201, 195, 159, 178, 178, 162, 162, 150, 155, 148, 151, 162, 163, 137, 178, 178, 171, 201, 194, 163, 173, 171, 142, 154, 155, 140, 150, 145, 141, 133, 138, 122, 115, 111, 141, 134, 134, 139, 156, 144, 145, 155},
{322, 302, 284, 292, 262, 252, 256, 260, 236, 326, 355, 331, 351, 386, 336, 324, 344, 371, 350, 334, 338, 328, 273, 267, 291, 283, 276, 273, 288, 266, 277, 263, 272, 245, 253, 233, 281, 255, 275, 288, 277, 225, 233, 220, 188, 209, 208, 202, 177, 195, 195, 209, 235, 264, 242, 255, 247, 219, 228, 231, 209, 211, 208, 158, 165, 148, 184, 189, 193, 192, 210, 179, 233, 240, 234, 233, 225, 175, 178, 178, 164, 167, 156, 142, 175, 170, 166, 168, 174, 136, 158, 154, 164, 170, 174, 154, 194, 210, 202, 210},
{859, 876, 708, 633, 622, 668, 696, 789, 788, 856, 855, 778, 804, 914, 877, 888, 917, 873, 780, 716, 741, 761, 732, 698, 704, 631, 602, 560, 573, 626, 694, 734, 853, 847, 844, 830, 857, 788, 837, 821, 773, 665, 588, 495, 465, 553, 513, 499, 542, 505, 479, 500, 527, 488, 517, 442, 449, 398, 443, 405, 400, 434, 436, 382, 379, 384, 392, 398, 415, 442, 478, 431, 455, 432, 445, 424, 416, 462, 453, 431, 394, 381, 408, 416, 413, 430, 439, 353, 388, 420, 477, 480, 474, 436, 440, 344, 385, 408, 435, 469}}

// 2 Reading of the 8 sensors, 100 samples per sensor
{{774, 679, 634, 634, 639, 646, 606, 572, 615, 598, 623, 658, 637, 690, 671, 676, 705, 726, 645, 688, 671, 598, 651, 705, 647, 626, 625, 563, 480, 518, 555, 627, 663, 652, 670, 672, 625, 626, 695, 685, 657, 644, 636, 645, 634, 664, 674, 643, 591, 675, 659, 659, 634, 675, 598, 552, 603, 617, 554, 643, 721, 697, 741, 738, 704, 628, 673, 711, 859, 803, 878, 916, 925, 800, 805, 775, 696, 608, 637, 618, 582, 572, 563, 633, 680, 690, 692, 766, 717, 745, 800, 823, 838, 871, 847, 763, 776, 715, 669, 685},
{126, 128, 132, 120, 121, 122, 123, 116, 115, 107, 121, 118, 125, 129, 131, 109, 125, 117, 121, 127, 134, 122, 133, 130, 117, 114, 123, 113, 112, 113, 113, 105, 119, 114, 125, 127, 128, 120, 128, 119, 124, 116, 116, 117, 126, 128, 136, 132, 122, 125, 115, 108, 109, 117, 105, 101, 118, 122, 111, 108, 117, 117, 120, 129, 144, 142, 146, 151, 162, 147, 158, 153, 145, 127, 131, 118, 102, 101, 108, 110, 109, 105, 98, 106, 106, 117, 125, 136, 123, 121, 131, 151, 178, 184, 191, 177, 163, 135, 141, 137},
{74, 90, 90, 94, 114, 117, 116, 121, 117, 99, 102, 92, 83, 85, 98, 93, 97, 128, 131, 116, 130, 130, 103, 105, 101, 100, 107, 100, 100, 101, 88, 78, 80, 78, 93, 103, 98, 97, 97, 88, 79, 83, 85, 82, 92, 105, 103, 103, 112, 99, 81, 89, 98, 85, 89, 88, 85, 76, 79, 81, 79, 75, 73, 64, 63, 60, 61, 64, 72, 68, 69, 74, 72, 74, 77, 81, 82, 90, 87, 86, 83, 84, 77, 78, 75, 85, 81, 81, 78, 84, 81, 78, 86, 86, 86, 84, 86, 84, 89, 88},
{80, 81, 84, 81, 87, 93, 103, 102, 104, 97, 89, 77, 81, 82, 91, 91, 96, 97, 90, 80, 80, 76, 68, 68, 65, 78, 87, 83, 81, 83, 80, 75, 79, 79, 79, 67, 65, 63, 63, 60, 71, 69, 72, 78, 93, 95, 100, 97, 96, 80, 69, 60, 61, 57, 59, 63, 61, 64, 67, 76, 71, 73, 75, 74, 68, 72, 73, 77, 75, 75, 75, 74, 65, 69, 65, 74, 75, 79, 79, 79, 68, 72, 77, 74, 75, 85, 80, 70, 69, 82, 82, 79, 92, 95, 90, 87, 92, 84, 85, 78},
{116, 117, 124, 115, 104, 100, 105, 99, 98, 94, 93, 85, 87, 99, 100, 94, 92, 93, 80, 89, 99, 99, 96, 99, 86, 78, 91, 91, 85, 86, 94, 87, 82, 80, 78, 75, 73, 80, 86, 88, 99, 97, 101, 109, 119, 111, 123, 118, 112, 99, 97, 79, 82, 76, 80, 75, 85, 82, 82, 85, 89, 85, 86, 88, 93, 90, 90, 104, 104, 98, 102, 100, 84, 82, 75, 81, 84, 91, 94, 95, 85, 82, 80, 76, 76, 87, 89, 93, 97, 114, 110, 112, 111, 109, 110, 104, 113, 106, 106, 93},
{292, 300, 336, 297, 300, 273, 284, 240, 240, 259, 260, 243, 260, 266, 246, 256, 255, 250, 253, 318, 338, 338, 338, 340, 264, 219, 257, 258, 236, 238, 264, 217, 201, 202, 207, 182, 193, 229, 238, 235, 282, 304, 311, 351, 371, 349, 355, 336, 293, 272, 279, 247, 273, 258, 249, 236, 269, 226, 242, 254, 251, 227, 253, 248, 244, 241, 245, 275, 290, 289, 286, 274, 220, 207, 196, 201, 230, 238, 229, 224, 229, 194, 203, 211, 212, 250, 249, 297, 314, 331, 310, 320, 257, 238, 239, 239, 234, 259, 248, 238},
{306, 330, 348, 345, 343, 318, 328, 339, 341, 325, 306, 297, 285, 279, 291, 298, 272, 284, 294, 350, 348, 345, 335, 319, 236, 229, 254, 259, 237, 243, 257, 228, 218, 233, 231, 228, 224, 269, 269, 260, 302, 352, 333, 351, 383, 356, 316, 294, 268, 232, 253, 240, 255, 263, 255, 213, 256, 234, 260, 279, 287, 262, 267, 233, 225, 229, 302, 355, 414, 404, 404, 363, 302, 229, 243, 225, 206, 213, 202, 217, 247, 267, 265, 294, 290, 288, 263, 294, 310, 335, 341, 350, 341, 314, 295, 285, 282, 315, 311, 316},
{684, 764, 656, 705, 736, 760, 742, 764, 745, 657, 608, 546, 568, 627, 592, 570, 543, 577, 567, 645, 706, 717, 719, 748, 757, 760, 752, 719, 608, 579, 557, 656, 636, 653, 657, 680, 618, 694, 725, 700, 636, 689, 616, 587, 617, 647, 611, 602, 576, 561, 555, 491, 511, 524, 497, 469, 508, 503, 486, 522, 545, 563, 564, 600, 545, 538, 551, 580, 642, 663, 731, 718, 736, 660, 669, 603, 575, 533, 556, 510, 488, 471, 436, 521, 514, 542, 568, 576, 524, 598, 631, 627, 635, 640, 686, 620, 636, 625, 602, 536}}

// 3 Reading of the 8 sensors, 100 samples per sensor
{{536, 524, 482, 530, 530, 542, 648, 737, 733, 822, 876, 838, 793, 809, 760, 688, 734, 730, 685, 677, 678, 595, 639, 702, 638, 658, 642, 604, 532, 580, 579, 545, 603, 586, 544, 557, 589, 538, 600, 641, 682, 686, 683, 617, 590, 594, 624, 612, 637, 650, 663, 607, 562, 612, 617, 551, 576, 606, 579, 548, 555, 570, 562, 569, 645, 606, 616, 592, 560, 480, 519, 464, 458, 452, 424, 442, 471, 633, 650, 684, 698, 736, 590, 567, 524, 444, 363, 428, 458, 508, 590, 605, 587, 566, 529, 451, 405, 452, 451, 467},
{103, 106, 113, 120, 120, 126, 119, 121, 113, 118, 114, 119, 116, 121, 112, 112, 111, 107, 105, 107, 112, 120, 129, 132, 135, 130, 128, 123, 118, 110, 120, 110, 114, 124, 127, 117, 122, 119, 113, 118, 127, 117, 117, 110, 101, 99, 107, 102, 103, 106, 103, 99, 104, 113, 115, 111, 114, 110, 111, 104, 99, 99, 103, 94, 109, 106, 106, 96, 98, 85, 98, 101, 102, 100, 97, 99, 97, 121, 121, 131, 135, 140, 121, 116, 101, 87, 72, 76, 90, 99, 103, 105, 103, 93, 89, 85, 87, 83, 90, 84},
{78, 95, 102, 97, 101, 101, 105, 110, 113, 112, 113, 103, 104, 104, 103, 103, 112, 104, 129, 137, 138, 126, 126, 109, 113, 120, 121, 144, 133, 124, 128, 129, 100, 104, 101, 92, 91, 94, 93, 99, 97, 97, 94, 93, 86, 83, 79, 74, 70, 82, 80, 78, 88, 102, 95, 98, 104, 98, 100, 102, 106, 109, 114, 107, 117, 112, 107, 109, 103, 90, 87, 84, 82, 90, 84, 92, 97, 92, 82, 98, 90, 84, 92, 93, 78, 85, 87, 81, 87, 89, 106, 119, 124, 117, 114, 100, 82, 75, 75, 72},
{60, 66, 66, 66, 70, 74, 76, 79, 77, 76, 71, 67, 83, 87, 87, 90, 105, 99, 97, 100, 101, 85, 75, 75, 85, 84, 96, 95, 97, 89, 83, 76, 80, 78, 74, 71, 60, 64, 74, 81, 86, 89, 87, 79, 74, 71, 70, 66, 60, 65, 69, 68, 68, 71, 64, 67, 73, 75, 76, 79, 78, 74, 76, 80, 80, 74, 72, 71, 68, 67, 71, 75, 79, 80, 79, 78, 74, 74, 71, 77, 76, 74, 75, 76, 76, 76, 77, 70, 69, 65, 65, 68, 67, 64, 87, 91, 88, 90, 89, 67},
{80, 74, 79, 74, 74, 68, 81, 84, 85, 85, 87, 84, 89, 89, 88, 91, 94, 95, 91, 106, 110, 105, 100, 112, 118, 115, 114, 111, 103, 90, 84, 100, 101, 103, 94, 96, 79, 79, 90, 93, 92, 100, 100, 85, 91, 93, 82, 82, 76, 63, 70, 70, 73, 75, 77, 71, 75, 79, 82, 80, 83, 87, 80, 77, 77, 67, 62, 61, 69, 68, 69, 75, 79, 79, 80, 81, 77, 79, 72, 72, 72, 63, 63, 65, 63, 62, 71, 64, 73, 78, 77, 80, 83, 75, 74, 77, 74, 71, 72, 70},
{231, 222, 241, 238, 234, 231, 277, 268, 280, 284, 292, 269, 266, 249, 222, 220, 202, 246, 256, 307, 330, 337, 322, 349, 385, 424, 420, 420, 398, 348, 282, 306, 291, 289, 282, 275, 284, 279, 306, 298, 310, 297, 300, 270, 263, 241, 212, 203, 177, 173, 199, 191, 218, 241, 254, 255, 260, 268, 277, 264, 256, 271, 239, 208, 209, 188, 161, 147, 174, 166, 176, 185, 196, 170, 187, 180, 174, 172, 181, 171, 176, 169, 185, 181, 179, 176, 213, 194, 202, 207, 207, 195, 199, 190, 187, 182, 189, 187, 198, 189},
{262, 245, 219, 272, 318, 310, 343, 368, 349, 322, 336, 315, 300, 292, 274, 262, 248, 284, 282, 303, 347, 342, 313, 387, 414, 400, 430, 468, 427, 415, 392, 353, 319, 292, 286, 285, 312, 314, 317, 288, 288, 326, 309, 311, 324, 312, 244, 251, 230, 208, 221, 227, 191, 235, 228, 242, 254, 273, 257, 261, 282, 279, 261, 244, 243, 223, 214, 212, 235, 236, 210, 234, 242, 223, 230, 216, 204, 203, 215, 204, 208, 220, 254, 254, 253, 256, 236, 183, 203, 221, 248, 273, 290, 267, 260, 235, 237, 231, 233, 221},
{479, 504, 474, 515, 566, 577, 709, 715, 712, 762, 817, 725, 709, 746, 688, 622, 656, 627, 626, 604, 604, 523, 542, 493, 471, 562, 600, 632, 633, 658, 600, 557, 554, 515, 490, 465, 502, 470, 484, 513, 570, 550, 596, 577, 568, 542, 516, 422, 425, 467, 486, 498, 500, 552, 507, 463, 457, 491, 495, 486, 497, 514, 481, 443, 439, 464, 437, 453, 497, 545, 534, 589, 581, 532, 483, 486, 455, 575, 576, 593, 547, 568, 524, 533, 498, 510, 470, 408, 493, 498, 511, 497, 529, 463, 476, 503, 498, 482, 463, 447}}

// 4 Reading of the 8 sensors, 100 samples per sensor
{{764, 724, 697, 709, 674, 683, 696, 641, 525, 521, 488, 451, 478, 496, 491, 517, 492, 478, 509, 509, 545, 535, 539, 516, 528, 473, 471, 463, 411, 414, 402, 369, 388, 412, 459, 539, 557, 601, 591, 597, 505, 530, 483, 584, 590, 681, 753, 775, 713, 673, 628, 572, 550, 593, 650, 613, 559, 537, 508, 399, 412, 439, 472, 443, 449, 490, 450, 400, 439, 438, 471, 469, 476, 456, 498, 414, 437, 419, 378, 421, 445, 457, 490, 488, 399, 358, 357, 316, 346, 356, 410, 433, 430, 432, 431, 388, 387, 410, 415, 434},
{140, 134, 116, 121, 113, 121, 131, 123, 102, 103, 94, 77, 76, 82, 75, 80, 82, 80, 79, 78, 82, 79, 86, 83, 86, 81, 88, 80, 76, 73, 78, 79, 80, 85, 92, 87, 88, 93, 91, 89, 83, 80, 83, 87, 83, 96, 110, 109, 114, 120, 117, 115, 108, 103, 103, 102, 93, 95, 90, 80, 81, 91, 88, 88, 92, 91, 73, 81, 83, 87, 103, 105, 99, 98, 93, 68, 69, 68, 69, 86, 87, 83, 88, 84, 68, 70, 69, 65, 79, 75, 74, 91, 89, 79, 90, 91, 84, 87, 91, 79},
{72, 71, 67, 66, 66, 75, 74, 80, 89, 88, 84, 82, 73, 74, 71, 72, 73, 84, 73, 76, 70, 88, 83, 100, 99, 102, 88, 123, 115, 117, 122, 121, 85, 84, 84, 72, 88, 94, 91, 109, 109, 122, 119, 118, 101, 101, 78, 94, 114, 120, 123, 124, 111, 92, 112, 108, 109, 108, 110, 85, 98, 88, 87, 82, 77, 66, 66, 72, 69, 73, 75, 75, 67, 68, 68, 64, 64, 68, 71, 73, 73, 74, 78, 81, 76, 73, 71, 66, 55, 60, 63, 67, 68, 74, 67, 74, 73, 71, 64, 67},
{96, 90, 86, 82, 76, 78, 80, 74, 78, 76, 71, 70, 65, 62, 63, 75, 76, 93, 88, 89, 81, 79, 61, 69, 65, 61, 59, 64, 65, 67, 70, 72, 66, 62, 68, 63, 65, 76, 78, 76, 76, 74, 64, 61, 58, 60, 61, 63, 68, 71, 73, 75, 74, 69, 75, 72, 70, 73, 77, 67, 68, 66, 61, 61, 62, 69, 70, 69, 62, 63, 53, 49, 50, 53, 54, 54, 58, 58, 60, 57, 75, 79, 82, 85, 87, 73, 66, 66, 60, 55, 65, 64, 58, 65, 68, 61, 64, 69, 63, 58},
{83, 72, 64, 67, 62, 58, 63, 63, 61, 61, 70, 70, 73, 73, 78, 75, 72, 70, 65, 61, 58, 60, 61, 60, 62, 61, 57, 54, 52, 47, 44, 48, 54, 62, 71, 73, 71, 69, 65, 63, 63, 64, 69, 73, 70, 73, 74, 67, 68, 69, 66, 64, 62, 52, 48, 51, 48, 53, 55, 53, 48, 45, 39, 37, 44, 51, 52, 53, 51, 50, 45, 50, 52, 55, 53, 52, 48, 48, 50, 46, 48, 54, 53, 51, 57, 56, 51, 55, 55, 57, 59, 61, 59, 59, 54, 54, 54, 57, 57, 59},
{142, 123, 112, 132, 123, 121, 140, 136, 122, 123, 132, 120, 134, 133, 141, 150, 158, 151, 147, 143, 148, 138, 149, 146, 156, 134, 141, 130, 130, 121, 118, 106, 107, 116, 117, 133, 146, 146, 142, 143, 140, 134, 140, 156, 167, 172, 170, 174, 172, 161, 151, 154, 140, 121, 122, 118, 104, 120, 117, 116, 131, 141, 125, 131, 120, 118, 109, 128, 123, 128, 135, 140, 123, 131, 146, 128, 123, 126, 126, 103, 108, 121, 125, 125, 144, 145, 136, 141, 135, 132, 132, 148, 143, 148, 133, 121, 106, 106, 115, 119},
{183, 180, 177, 219, 196, 201, 204, 203, 161, 159, 158, 145, 151, 148, 170, 180, 194, 207, 200, 182, 175, 163, 157, 151, 149, 142, 147, 137, 143, 154, 156, 168, 165, 171, 163, 196, 192, 210, 204, 206, 183, 167, 149, 170, 171, 170, 191, 185, 190, 190, 186, 178, 181, 156, 158, 157, 140, 148, 149, 156, 168, 185, 173, 186, 167, 157, 145, 165, 146, 158, 175, 170, 155, 159, 176, 156, 150, 153, 158, 125, 121, 125, 117, 123, 129, 129, 124, 123, 109, 116, 126, 131, 136, 147, 138, 132, 134, 136, 146, 153},
{618, 536, 477, 514, 474, 426, 458, 442, 374, 351, 358, 328, 328, 441, 477, 475, 536, 541, 480, 463, 471, 438, 439, 426, 389, 478, 444, 475, 462, 496, 393, 452, 411, 397, 405, 441, 363, 404, 397, 356, 355, 392, 392, 464, 518, 511, 590, 572, 575, 536, 546, 459, 451, 416, 447, 435, 409, 436, 397, 352, 337, 401, 377, 400, 462, 469, 427, 469, 453, 409, 426, 399, 375, 364, 341, 354, 344, 308, 350, 339, 281, 356, 360, 331, 347, 389, 324, 332, 364, 362, 358, 368, 340, 407, 394, 379, 404, 438, 402, 464}}

// 5 Reading of the 8 sensors, 100 samples per sensor
{{673, 703, 747, 714, 699, 709, 691, 648, 639, 661, 634, 662, 676, 679, 657, 654, 619, 598, 593, 571, 603, 583, 571, 589, 564, 494, 484, 544, 524, 536, 479, 489, 455, 433, 442, 453, 450, 458, 510, 493, 544, 563, 562, 573, 544, 581, 574, 626, 612, 624, 557, 534, 411, 461, 469, 474, 503, 534, 486, 501, 505, 465, 416, 380, 336, 297, 356, 404, 394, 396, 401, 353, 425, 456, 468, 477, 482, 427, 401, 396, 404, 406, 362, 400, 403, 370, 401, 394, 344, 358, 373, 368, 395, 429, 421, 527, 545, 591, 593, 647},
{149, 149, 148, 151, 144, 129, 129, 122, 120, 127, 137, 144, 135, 134, 120, 121, 114, 122, 119, 126, 133, 131, 127, 131, 130, 116, 119, 123, 117, 117, 108, 109, 103, 103, 105, 114, 115, 109, 106, 101, 98, 89, 105, 111, 109, 109, 118, 110, 106, 101, 100, 92, 90, 96, 101, 103, 111, 108, 99, 101, 93, 84, 87, 88, 81, 84, 85, 82, 78, 82, 80, 80, 88, 91, 86, 91, 90, 77, 79, 84, 83, 82, 83, 84, 78, 80, 82, 81, 77, 85, 79, 80, 77, 77, 80, 87, 88, 96, 102, 104},
{104, 117, 105, 98, 112, 103, 95, 106, 109, 106, 114, 118, 111, 112, 104, 103, 91, 93, 93, 99, 95, 92, 101, 105, 99, 100, 103, 101, 94, 93, 99, 105, 103, 106, 104, 93, 91, 86, 80, 85, 85, 79, 88, 86, 76, 74, 80, 61, 60, 78, 80, 69, 73, 83, 72, 79, 83, 82, 83, 86, 80, 77, 75, 85, 86, 81, 84, 92, 74, 75, 79, 83, 76, 77, 83, 83, 83, 81, 82, 71, 66, 70, 91, 90, 86, 88, 82, 63, 63, 85, 87, 86, 85, 89, 68, 64, 60, 67, 77, 85},
{93, 91, 89, 93, 87, 77, 74, 72, 76, 84, 78, 91, 92, 82, 80, 95, 95, 96, 100, 99, 90, 77, 76, 75, 71, 72, 73, 81, 79, 76, 78, 80, 70, 71, 71, 65, 68, 66, 63, 68, 64, 59, 61, 62, 56, 59, 60, 67, 65, 64, 63, 58, 57, 63, 66, 65, 71, 61, 58, 54, 58, 51, 52, 49, 51, 44, 47, 54, 53, 52, 54, 54, 48, 42, 44, 46, 48, 56, 57, 58, 58, 60, 58, 63, 63, 62, 58, 55, 52, 50, 49, 52, 57, 57, 53, 65, 63, 60, 61, 67},
{88, 91, 92, 88, 82, 72, 69, 73, 72, 88, 81, 92, 89, 96, 93, 98, 105, 108, 101, 93, 97, 79, 72, 77, 79, 68, 69, 71, 67, 66, 71, 69, 67, 72, 72, 71, 75, 75, 66, 70, 67, 62, 61, 66, 62, 63, 67, 71, 68, 64, 59, 54, 53, 53, 60, 60, 64, 61, 59, 55, 60, 52, 48, 54, 50, 45, 48, 51, 49, 49, 49, 54, 53, 47, 52, 52, 51, 57, 60, 63, 70, 66, 62, 61, 58, 55, 60, 57, 59, 56, 51, 53, 56, 56, 57, 80, 80, 87, 94, 97},
{251, 251, 270, 252, 221, 199, 192, 193, 212, 281, 276, 297, 282, 282, 232, 229, 241, 260, 230, 214, 244, 218, 200, 217, 228, 198, 191, 195, 185, 183, 179, 179, 165, 159, 155, 162, 153, 160, 157, 163, 161, 160, 160, 164, 148, 137, 138, 132, 135, 131, 127, 143, 147, 148, 156, 162, 146, 130, 120, 117, 121, 129, 128, 133, 127, 118, 106, 107, 108, 103, 97, 103, 112, 104, 110, 112, 114, 116, 112, 121, 132, 133, 130, 142, 138, 148, 143, 136, 126, 122, 103, 115, 111, 115, 135, 228, 252, 275, 295, 295},
{296, 298, 301, 282, 242, 246, 267, 260, 259, 279, 279, 276, 279, 298, 285, 300, 303, 297, 276, 280, 289, 274, 271, 274, 257, 217, 213, 223, 224, 228, 211, 223, 217, 221, 239, 235, 212, 200, 178, 162, 177, 189, 195, 207, 207, 194, 187, 181, 165, 169, 158, 165, 164, 162, 149, 167, 153, 170, 174, 174, 163, 170, 152, 149, 155, 153, 135, 129, 132, 109, 117, 125, 125, 124, 126, 119, 116, 148, 149, 189, 188, 189, 172, 172, 156, 160, 159, 148, 155, 125, 121, 142, 157, 147, 179, 245, 256, 279, 297, 294},
{580, 566, 576, 634, 575, 530, 501, 497, 393, 475, 477, 537, 587, 624, 559, 593, 605, 575, 553, 587, 548, 524, 482, 511, 478, 486, 439, 544, 518, 546, 512, 513, 413, 362, 307, 341, 321, 313, 331, 394, 477, 496, 521, 524, 522, 546, 521, 594, 599, 605, 506, 510, 386, 403, 324, 321, 308, 310, 359, 462, 461, 529, 512, 451, 425, 424, 337, 380, 381, 293, 296, 308, 244, 230, 242, 236, 242, 327, 365, 403, 405, 387, 378, 399, 368, 404, 442, 418, 402, 397, 361, 410, 393, 356, 375, 413, 337, 461, 488, 585}}

// 6 Reading of the 8 sensors, 100 samples per sensor
{{483, 446, 465, 500, 450, 431, 441, 392, 362, 368, 339, 339, 346, 341, 355, 354, 432, 401, 469, 457, 459, 376, 429, 350, 421, 461, 483, 437, 441, 436, 388, 405, 420, 420, 361, 394, 348, 366, 359, 354, 319, 293, 256, 316, 352, 343, 353, 368, 335, 302, 378, 456, 452, 452, 481, 437, 390, 397, 400, 391, 395, 410, 411, 390, 359, 361, 312, 295, 307, 325, 324, 311, 309, 295, 269, 258, 250, 281, 330, 332, 327, 338, 392, 355, 359, 365, 395, 354, 378, 363, 429, 415, 383, 425, 446, 409, 419, 438, 390, 414},
{71, 71, 76, 84, 92, 91, 91, 81, 73, 69, 67, 75, 73, 75, 70, 73, 72, 71, 76, 72, 69, 65, 73, 69, 78, 80, 80, 72, 68, 63, 60, 71, 74, 75, 74, 83, 73, 79, 78, 77, 71, 63, 50, 61, 67, 64, 67, 72, 70, 62, 67, 69, 68, 61, 66, 65, 67, 70, 72, 70, 67, 67, 62, 63, 61, 59, 51, 53, 52, 51, 54, 55, 58, 54, 56, 58, 59, 57, 70, 70, 66, 63, 67, 57, 58, 58, 62, 57, 58, 60, 68, 72, 70, 74, 72, 65, 59, 63, 57, 65},
{48, 48, 60, 66, 67, 64, 63, 54, 46, 49, 54, 56, 54, 52, 49, 44, 47, 49, 55, 51, 51, 47, 44, 40, 44, 42, 40, 42, 36, 36, 41, 45, 46, 51, 49, 47, 48, 52, 48, 49, 49, 44, 38, 43, 42, 43, 47, 49, 50, 51, 48, 47, 44, 40, 41, 39, 36, 40, 44, 42, 46, 45, 42, 40, 41, 39, 39, 42, 41, 38, 44, 46, 44, 45, 47, 42, 40, 45, 46, 46, 48, 46, 42, 38, 38, 33, 38, 36, 39, 40, 44, 44, 45, 45, 48, 45, 41, 42, 38, 35},
{57, 53, 54, 61, 57, 60, 60, 57, 51, 58, 54, 54, 50, 51, 45, 44, 46, 47, 47, 47, 46, 49, 50, 47, 51, 50, 48, 48, 47, 43, 46, 45, 45, 48, 44, 43, 43, 44, 44, 48, 45, 45, 44, 46, 44, 45, 46, 48, 45, 47, 47, 47, 43, 44, 50, 47, 48, 52, 58, 55, 56, 54, 51, 43, 40, 39, 38, 38, 40, 39, 39, 44, 43, 43, 41, 40, 37, 40, 42, 47, 58, 57, 54, 55, 52, 45, 49, 48, 47, 46, 41, 40, 40, 38, 37, 42, 46, 48, 47, 51},
{54, 45, 49, 56, 55, 58, 56, 53, 48, 50, 44, 44, 42, 45, 45, 47, 50, 50, 45, 42, 45, 41, 40, 40, 40, 36, 36, 38, 38, 37, 35, 49, 51, 53, 53, 53, 42, 38, 41, 42, 46, 49, 49, 46, 44, 41, 40, 45, 45, 46, 47, 45, 41, 42, 42, 41, 41, 46, 47, 48, 46, 46, 39, 36, 34, 33, 33, 38, 38, 38, 40, 43, 43, 44, 43, 44, 42, 37, 39, 41, 48, 49, 52, 51, 51, 41, 41, 36, 39, 38, 40, 48, 49, 45, 43, 44, 43, 47, 48, 54},
{104, 110, 137, 146, 162, 166, 161, 141, 134, 144, 136, 133, 131, 139, 111, 111, 109, 104, 96, 96, 100, 105, 105, 103, 98, 87, 80, 88, 91, 94, 103, 147, 144, 140, 138, 135, 86, 81, 102, 108, 101, 97, 95, 72, 66, 74, 90, 96, 98, 93, 89, 78, 70, 86, 94, 104, 97, 105, 101, 102, 92, 92, 86, 74, 72, 78, 88, 87, 86, 106, 103, 105, 106, 105, 82, 82, 71, 64, 72, 79, 100, 108, 111, 108, 102, 85, 80, 90, 90, 90, 104, 102, 94, 99, 100, 84, 99, 117, 111, 118},
{157, 151, 174, 180, 184, 186, 181, 153, 148, 163, 151, 154, 158, 165, 158, 155, 147, 135, 119, 84, 104, 119, 135, 135, 139, 123, 106, 100, 98, 100, 116, 124, 110, 126, 122, 109, 100, 106, 107, 127, 130, 139, 145, 133, 112, 108, 114, 103, 109, 111, 112, 100, 104, 104, 108, 111, 104, 102, 113, 110, 117, 120, 115, 104, 104, 121, 127, 129, 129, 130, 104, 130, 136, 134, 142, 147, 125, 117, 110, 98, 110, 110, 110, 110, 110, 94, 103, 111, 123, 122, 130, 118, 112, 122, 126, 111, 111, 130, 110, 107},
{443, 388, 436, 482, 396, 404, 416, 332, 266, 297, 284, 278, 357, 377, 354, 351, 389, 319, 288, 284, 332, 276, 275, 267, 284, 224, 212, 203, 199, 207, 194, 208, 217, 270, 239, 251, 262, 300, 313, 318, 400, 390, 363, 311, 335, 240, 272, 267, 339, 323, 320, 361, 390, 337, 330, 321, 286, 305, 306, 321, 370, 351, 300, 294, 297, 254, 237, 236, 261, 266, 244, 311, 324, 303, 272, 293, 285, 273, 290, 291, 372, 331, 337, 328, 360, 259, 252, 237, 348, 321, 323, 347, 379, 270, 280, 312, 312, 280, 288, 344}}

// 7 Reading of the 8 sensors, 100 samples per sensor
{{648, 633, 658, 684, 654, 619, 624, 553, 538, 564, 606, 636, 646, 680, 646, 680, 613, 605, 570, 572, 502, 489, 428, 417, 397, 446, 474, 471, 516, 502, 439, 426, 445, 398, 427, 441, 413, 421, 426, 439, 406, 428, 401, 373, 392, 415, 475, 483, 549, 527, 512, 444, 461, 385, 376, 433, 502, 508, 506, 542, 519, 505, 510, 516, 496, 493, 475, 501, 504, 512, 547, 509, 447, 453, 395, 329, 464, 494, 509, 578, 567, 520, 512, 475, 454, 457, 420, 449, 447, 413, 409, 402, 376, 411, 389, 419, 405, 386, 396, 438},
{109, 102, 93, 95, 116, 116, 124, 120, 131, 117, 130, 123, 128, 119, 127, 116, 114, 110, 110, 110, 116, 113, 106, 113, 100, 100, 106, 111, 100, 97, 82, 81, 82, 80, 85, 96, 92, 96, 95, 94, 82, 89, 86, 88, 92, 93, 86, 89, 91, 84, 85, 83, 72, 74, 72, 83, 91, 93, 92, 108, 104, 108, 106, 110, 97, 93, 82, 82, 80, 81, 89, 89, 101, 94, 94, 84, 95, 87, 86, 98, 96, 82, 78, 82, 67, 70, 69, 76, 74, 70, 64, 65, 54, 58, 60, 62, 63, 66, 65, 67},
{124, 115, 121, 129, 144, 195, 195, 194, 191, 179, 116, 100, 96, 108, 108, 106, 104, 96, 87, 113, 121, 122, 122, 119, 97, 112, 107, 105, 100, 90, 67, 68, 74, 83, 91, 89, 93, 103, 99, 97, 94, 98, 87, 88, 88, 81, 72, 86, 90, 88, 89, 85, 67, 60, 59, 61, 69, 66, 64, 63, 59, 60, 62, 65, 67, 68, 62, 62, 60, 56, 57, 55, 61, 55, 59, 54, 54, 45, 43, 43, 44, 51, 49, 53, 51, 54, 48, 58, 59, 57, 55, 55, 47, 48, 47, 45, 51, 55, 58, 60},
{55, 53, 58, 60, 61, 62, 61, 53, 60, 60, 60, 63, 69, 68, 68, 70, 64, 59, 55, 57, 58, 64, 67, 65, 59, 56, 49, 43, 41, 44, 42, 43, 46, 52, 57, 84, 89, 96, 96, 106, 92, 87, 80, 85, 65, 58, 55, 56, 43, 44, 45, 51, 53, 55, 56, 62, 65, 69, 74, 72, 75, 80, 77, 81, 83, 77, 68, 66, 52, 48, 44, 42, 49, 50, 54, 53, 52, 46, 48, 45, 50, 53, 50, 46, 45, 44, 44, 51, 54, 55, 57, 55, 51, 52, 50, 49, 56, 55, 51, 52},
{56, 53, 60, 57, 60, 61, 68, 61, 67, 76, 76, 77, 85, 84, 75, 79, 70, 61, 61, 62, 62, 64, 70, 64, 63, 55, 55, 46, 47, 52, 59, 54, 61, 65, 63, 64, 80, 77, 75, 76, 69, 54, 52, 54, 52, 59, 54, 56, 57, 58, 53, 57, 55, 54, 50, 54, 56, 63, 64, 65, 64, 62, 56, 69, 69, 67, 65, 66, 56, 55, 53, 57, 59, 55, 62, 59, 55, 50, 51, 48, 51, 55, 56, 54, 49, 50, 48, 48, 48, 49, 51, 47, 48, 51, 50, 50, 59, 54, 54, 52},
{174, 158, 168, 147, 159, 159, 176, 160, 168, 179, 180, 184, 217, 217, 196, 210, 192, 159, 164, 163, 170, 179, 187, 179, 178, 144, 132, 111, 104, 103, 120, 117, 114, 120, 117, 111, 142, 143, 139, 144, 134, 99, 96, 91, 91, 104, 102, 108, 125, 121, 118, 124, 133, 133, 139, 138, 167, 199, 197, 212, 212, 191, 151, 161, 137, 137, 130, 133, 124, 117, 126, 143, 149, 150, 158, 144, 140, 141, 128, 128, 138, 131, 115, 118, 126, 123, 122, 126, 122, 111, 119, 116, 124, 129, 124, 121, 135, 130, 122, 125},
{178, 177, 184, 202, 201, 211, 212, 203, 177, 181, 186, 194, 231, 248, 260, 276, 265, 244, 253, 239, 238, 245, 227, 197, 204, 175, 159, 165, 176, 156, 162, 156, 155, 162, 166, 164, 179, 194, 176, 188, 195, 202, 193, 189, 209, 195, 172, 183, 198, 176, 199, 199, 182, 173, 159, 127, 154, 197, 196, 237, 248, 261, 242, 245, 208, 198, 173, 159, 191, 193, 190, 197, 194, 180, 183, 182, 189, 194, 175, 174, 178, 161, 162, 155, 154, 148, 135, 123, 119, 105, 122, 136, 181, 185, 192, 181, 181, 138, 135, 127},
{427, 454, 495, 546, 517, 525, 490, 437, 390, 444, 450, 524, 538, 576, 525, 620, 575, 573, 537, 553, 460, 446, 436, 419, 430, 404, 442, 441, 482, 469, 479, 474, 475, 506, 492, 469, 503, 510, 482, 482, 505, 485, 476, 443, 428, 416, 389, 422, 456, 477, 600, 571, 553, 519, 516, 371, 384, 421, 469, 481, 475, 550, 550, 525, 535, 513, 468, 474, 480, 490, 492, 463, 452, 411, 403, 430, 431, 434, 450, 419, 463, 457, 478, 452, 459, 430, 450, 449, 473, 452, 442, 464, 426, 393, 422, 473, 482, 469, 492, 488}}

// 8 Reading of the 8 sensors, 100 samples per sensor
{{459, 434, 466, 430, 378, 352, 346, 329, 302, 296, 329, 351, 372, 372, 387, 355, 352, 355, 336, 399, 418, 456, 444, 445, 414, 430, 368, 357, 421, 393, 387, 434, 425, 357, 406, 415, 393, 383, 379, 312, 263, 259, 289, 343, 361, 445, 423, 405, 416, 413, 328, 352, 367, 310, 332, 335, 382, 391, 389, 372, 371, 362, 335, 347, 326, 362, 319, 326, 318, 310, 258, 311, 361, 368, 384, 380, 349, 320, 311, 301, 309, 309, 311, 355, 344, 352, 315, 271, 203, 250, 241, 297, 340, 341, 309, 311, 303, 272, 276, 299},
{75, 70, 73, 78, 72, 72, 74, 70, 69, 68, 70, 72, 78, 70, 78, 75, 75, 77, 70, 63, 65, 68, 68, 73, 74, 79, 76, 71, 79, 79, 76, 87, 89, 85, 88, 96, 88, 83, 77, 69, 59, 59, 60, 68, 71, 77, 74, 71, 74, 72, 64, 64, 65, 55, 55, 52, 59, 61, 58, 57, 57, 52, 51, 52, 54, 59, 62, 62, 66, 63, 60, 61, 68, 66, 72, 73, 68, 63, 63, 60, 56, 57, 54, 63, 62, 64, 64, 64, 58, 57, 55, 55, 62, 58, 57, 59, 60, 55, 54, 55},
{42, 41, 46, 43, 42, 47, 48, 43, 44, 49, 47, 50, 57, 55, 54, 51, 49, 66, 75, 96, 98, 103, 96, 88, 64, 63, 65, 55, 59, 60, 58, 46, 49, 59, 56, 59, 62, 61, 46, 52, 49, 48, 56, 56, 52, 55, 51, 43, 58, 58, 59, 60, 62, 58, 62, 58, 58, 56, 49, 54, 54, 55, 57, 55, 44, 44, 45, 45, 48, 48, 47, 43, 46, 43, 47, 50, 51, 48, 50, 53, 53, 60, 58, 56, 76, 75, 70, 72, 71, 41, 40, 43, 44, 59, 60, 65, 67, 67, 57, 56},
{60, 61, 63, 57, 55, 45, 49, 49, 45, 54, 53, 52, 54, 56, 48, 47, 46, 47, 53, 59, 61, 62, 68, 68, 66, 63, 65, 56, 51, 46, 46, 36, 38, 40, 47, 52, 61, 58, 55, 52, 51, 42, 46, 46, 42, 42, 44, 48, 55, 61, 61, 60, 56, 53, 51, 46, 48, 47, 42, 38, 41, 44, 44, 45, 44, 49, 42, 46, 48, 52, 51, 54, 52, 48, 49, 48, 46, 44, 47, 44, 46, 47, 48, 47, 56, 51, 50, 50, 53, 46, 48, 52, 58, 56, 52, 53, 53, 48, 49, 51},
{47, 47, 50, 46, 42, 50, 54, 55, 54, 60, 52, 48, 50, 50, 44, 47, 44, 47, 52, 55, 57, 60, 58, 59, 59, 59, 60, 57, 58, 57, 57, 52, 50, 57, 55, 64, 67, 68, 58, 58, 45, 45, 48, 49, 50, 55, 52, 54, 62, 64, 60, 60, 56, 47, 43, 39, 40, 40, 36, 41, 41, 39, 38, 39, 33, 46, 48, 51, 51, 53, 45, 44, 41, 40, 39, 41, 39, 41, 41, 40, 38, 41, 42, 42, 45, 45, 43, 39, 44, 40, 42, 45, 49, 46, 46, 45, 41, 39, 39, 40},
{145, 137, 144, 127, 106, 141, 173, 172, 176, 191, 169, 138, 171, 168, 153, 157, 152, 138, 142, 144, 149, 159, 136, 129, 136, 127, 124, 120, 125, 114, 107, 102, 101, 161, 159, 175, 178, 179, 131, 145, 133, 134, 145, 147, 144, 144, 139, 131, 159, 153, 149, 146, 144, 118, 114, 111, 119, 121, 93, 114, 116, 109, 112, 114, 89, 130, 129, 129, 135, 136, 95, 95, 89, 91, 94, 96, 94, 99, 91, 87, 91, 101, 93, 95, 114, 122, 115, 114, 127, 109, 95, 94, 102, 94, 97, 94, 102, 106, 108, 112},
{190, 175, 182, 170, 163, 208, 235, 228, 229, 243, 206, 172, 192, 191, 170, 173, 167, 207, 211, 211, 217, 224, 161, 154, 174, 150, 145, 161, 161, 137, 171, 165, 162, 197, 201, 176, 179, 175, 131, 140, 142, 146, 139, 135, 121, 145, 145, 149, 189, 195, 178, 172, 167, 172, 164, 159, 181, 189, 140, 146, 149, 117, 106, 106, 90, 128, 130, 136, 149, 151, 120, 132, 141, 134, 136, 132, 131, 129, 122, 127, 143, 144, 143, 160, 186, 186, 180, 173, 179, 145, 129, 124, 131, 117, 116, 115, 127, 132, 171, 174},
{245, 239, 282, 275, 263, 312, 326, 299, 326, 338, 290, 285, 330, 287, 282, 335, 339, 352, 355, 362, 372, 372, 342, 351, 349, 293, 279, 296, 301, 296, 368, 369, 343, 339, 367, 296, 323, 375, 362, 329, 313, 335, 270, 275, 281, 394, 348, 343, 412, 458, 368, 383, 389, 364, 308, 314, 303, 345, 295, 305, 303, 395, 357, 347, 327, 348, 279, 273, 276, 294, 263, 219, 270, 320, 323, 330, 334, 299, 254, 231, 219, 266, 327, 322, 324, 336, 294, 211, 287, 284, 263, 290, 290, 255, 255, 270, 250, 245, 274, 285}}

// 9 Reading of the 8 sensors, 100 samples per sensor
{{210, 197, 180, 189, 235, 222, 222, 231, 244, 201, 180, 176, 180, 153, 190, 210, 205, 187, 200, 203, 196, 205, 247, 239, 217, 244, 244, 204, 205, 191, 182, 173, 186, 191, 209, 200, 201, 205, 226, 210, 186, 215, 219, 193, 191, 192, 172, 140, 164, 164, 171, 178, 197, 199, 202, 197, 202, 192, 176, 190, 226, 210, 249, 253, 239, 212, 226, 185, 229, 231, 238, 234, 239, 207, 223, 236, 235, 255, 246, 250, 266, 270, 249, 241, 215, 179, 167, 159, 168, 228, 222, 230, 277, 276, 228, 253, 250, 203, 244, 257},
{48, 47, 48, 48, 48, 49, 47, 49, 47, 45, 42, 44, 38, 40, 40, 41, 40, 41, 41, 40, 41, 43, 48, 46, 45, 47, 44, 39, 40, 39, 37, 39, 42, 40, 44, 41, 40, 42, 48, 47, 47, 52, 51, 48, 45, 46, 39, 34, 37, 38, 41, 43, 43, 56, 58, 59, 57, 60, 51, 54, 54, 55, 54, 50, 46, 44, 46, 44, 48, 50, 50, 49, 49, 49, 56, 57, 60, 60, 55, 46, 54, 52, 55, 56, 54, 46, 46, 42, 40, 50, 51, 48, 57, 59, 52, 50, 59, 53, 54, 56},
{41, 42, 44, 47, 44, 43, 45, 49, 48, 46, 45, 46, 41, 44, 44, 43, 40, 38, 35, 34, 36, 39, 40, 39, 39, 42, 40, 38, 38, 39, 34, 35, 35, 35, 37, 35, 35, 37, 38, 35, 36, 39, 36, 35, 36, 35, 33, 32, 32, 31, 35, 30, 32, 37, 39, 38, 40, 44, 39, 39, 39, 38, 37, 39, 37, 37, 39, 38, 36, 34, 35, 32, 30, 34, 34, 32, 36, 35, 32, 32, 35, 33, 35, 33, 34, 33, 30, 29, 30, 30, 33, 31, 31, 34, 37, 35, 37, 36, 35, 34},
{49, 55, 56, 56, 56, 54, 52, 53, 53, 59, 58, 56, 53, 54, 56, 55, 55, 57, 58, 47, 45, 49, 53, 49, 48, 52, 49, 45, 45, 44, 41, 40, 38, 42, 49, 53, 55, 58, 58, 59, 55, 53, 48, 44, 50, 48, 47, 53, 54, 46, 50, 49, 43, 45, 46, 42, 43, 46, 44, 42, 43, 46, 45, 46, 43, 46, 45, 44, 48, 50, 50, 50, 49, 51, 55, 51, 53, 51, 41, 35, 36, 37, 36, 40, 40, 44, 42, 44, 45, 43, 42, 42, 41, 38, 41, 41, 40, 38, 41, 44},
{45, 47, 49, 49, 49, 49, 47, 46, 50, 51, 53, 55, 59, 55, 53, 49, 45, 38, 37, 36, 36, 36, 38, 36, 36, 41, 45, 43, 43, 45, 40, 35, 34, 35, 35, 36, 37, 39, 41, 42, 41, 41, 39, 38, 43, 43, 45, 48, 48, 42, 42, 41, 41, 45, 45, 43, 42, 42, 39, 40, 45, 46, 46, 46, 44, 42, 43, 46, 43, 44, 51, 53, 48, 50, 51, 42, 38, 38, 39, 34, 34, 37, 40, 42, 45, 50, 47, 45, 44, 41, 41, 48, 51, 50, 52, 49, 43, 37, 37, 40},
{103, 105, 123, 127, 123, 122, 121, 106, 112, 102, 110, 114, 133, 126, 122, 127, 122, 112, 116, 127, 121, 124, 122, 119, 107, 114, 108, 93, 106, 112, 103, 101, 102, 95, 99, 95, 104, 105, 102, 109, 109, 107, 100, 104, 114, 115, 130, 137, 132, 110, 109, 89, 87, 95, 93, 91, 107, 106, 100, 118, 129, 115, 117, 123, 110, 107, 115, 114, 112, 116, 117, 120, 124, 124, 126, 117, 107, 96, 99, 96, 91, 106, 117, 112, 112, 117, 123, 118, 116, 112, 109, 97, 103, 117, 117, 113, 107, 100, 93, 92},
{159, 163, 153, 148, 143, 137, 142, 132, 132, 118, 134, 132, 145, 155, 151, 158, 152, 155, 145, 160, 152, 155, 154, 146, 139, 171, 172, 160, 160, 148, 102, 105, 107, 108, 122, 112, 100, 100, 114, 113, 120, 134, 134, 120, 125, 139, 133, 129, 131, 115, 112, 101, 107, 112, 112, 127, 131, 135, 136, 146, 138, 144, 152, 148, 139, 134, 133, 118, 135, 143, 134, 152, 159, 149, 142, 143, 117, 103, 101, 97, 95, 102, 114, 107, 134, 144, 138, 136, 135, 108, 95, 108, 115, 120, 141, 147, 144, 133, 142, 120},
{150, 131, 138, 170, 153, 151, 159, 150, 116, 108, 147, 144, 147, 148, 222, 199, 196, 199, 216, 152, 155, 175, 164, 134, 128, 171, 159, 161, 170, 173, 144, 131, 150, 148, 155, 145, 153, 147, 148, 144, 166, 165, 163, 170, 163, 136, 134, 148, 131, 131, 156, 164, 151, 162, 169, 151, 145, 141, 146, 137, 136, 133, 173, 160, 161, 155, 172, 126, 137, 150, 150, 137, 161, 153, 134, 154, 157, 144, 141, 145, 168, 170, 161, 160, 168, 133, 122, 127, 141, 132, 140, 158, 174, 167, 168, 195, 185, 167, 166, 211}}

// 10 Reading of the 8 sensors, 100 samples per sensor
{{212, 235, 250, 223, 219, 212, 203, 197, 208, 236, 244, 220, 246, 243, 264, 254, 259, 228, 230, 173, 170, 159, 172, 193, 201, 253, 261, 261, 278, 337, 315, 313, 319, 307, 226, 220, 260, 259, 251, 258, 256, 241, 227, 211, 211, 210, 204, 224, 223, 219, 264, 258, 287, 286, 304, 266, 274, 230, 256, 264, 262, 250, 292, 309, 308, 305, 301, 327, 306, 326, 327, 375, 333, 316, 328, 339, 290, 292, 298, 254, 271, 281, 266, 330, 373, 352, 357, 366, 335, 320, 324, 312, 318, 281, 214, 262, 288, 289, 346, 386},
{41, 43, 45, 47, 48, 45, 43, 43, 41, 42, 47, 46, 49, 50, 52, 50, 54, 51, 53, 51, 50, 47, 46, 47, 48, 51, 52, 53, 52, 52, 50, 50, 52, 53, 52, 54, 52, 50, 48, 48, 43, 45, 45, 46, 47, 46, 49, 55, 51, 52, 57, 58, 63, 67, 65, 72, 73, 65, 65, 69, 57, 48, 55, 63, 60, 60, 63, 59, 45, 43, 47, 53, 49, 54, 56, 58, 54, 56, 54, 54, 50, 47, 48, 49, 55, 54, 53, 52, 57, 52, 54, 54, 54, 49, 49, 53, 52, 48, 56, 55},
{26, 26, 30, 35, 38, 38, 39, 36, 32, 29, 33, 33, 35, 37, 37, 38, 43, 42, 51, 52, 50, 55, 56, 50, 51, 59, 57, 57, 56, 54, 47, 42, 42, 43, 45, 46, 46, 55, 52, 53, 50, 48, 42, 44, 45, 46, 46, 46, 44, 40, 40, 44, 38, 38, 40, 41, 43, 46, 46, 44, 44, 39, 39, 44, 45, 45, 45, 41, 34, 34, 36, 34, 34, 37, 36, 35, 35, 36, 36, 35, 35, 36, 34, 38, 40, 38, 37, 38, 40, 38, 38, 40, 40, 36, 36, 38, 35, 33, 31, 33},
{45, 48, 44, 44, 40, 37, 36, 44, 44, 43, 44, 44, 34, 37, 39, 40, 40, 44, 48, 50, 49, 52, 53, 56, 55, 56, 54, 57, 53, 51, 51, 49, 42, 36, 40, 40, 39, 40, 44, 47, 44, 46, 48, 45, 41, 42, 44, 42, 45, 46, 48, 48, 47, 43, 42, 43, 38, 42, 40, 40, 41, 42, 39, 42, 45, 42, 42, 44, 42, 36, 36, 35, 33, 44, 53, 54, 53, 55, 50, 39, 42, 47, 50, 50, 56, 56, 51, 47, 45, 39, 39, 38, 38, 42, 43, 44, 47, 49, 47, 47},
{43, 43, 41, 46, 45, 42, 40, 43, 39, 37, 37, 37, 34, 34, 36, 33, 38, 43, 48, 47, 47, 46, 43, 42, 43, 45, 48, 49, 48, 47, 48, 44, 46, 40, 46, 44, 47, 48, 48, 47, 47, 46, 44, 46, 44, 48, 53, 54, 53, 51, 49, 45, 40, 40, 40, 44, 41, 45, 44, 45, 52, 56, 53, 65, 66, 57, 61, 63, 53, 50, 52, 46, 43, 48, 49, 47, 45, 48, 45, 45, 45, 53, 51, 45, 50, 49, 43, 43, 45, 40, 45, 42, 41, 41, 44, 40, 43, 45, 45, 45},
{116, 121, 117, 119, 119, 124, 124, 124, 117, 119, 103, 101, 101, 115, 106, 108, 113, 123, 112, 118, 118, 111, 104, 110, 106, 121, 134, 127, 126, 125, 112, 102, 110, 107, 114, 111, 105, 136, 137, 134, 142, 144, 111, 108, 125, 129, 157, 173, 171, 156, 150, 123, 100, 105, 110, 113, 110, 115, 121, 124, 146, 149, 147, 184, 184, 163, 193, 191, 149, 147, 161, 123, 126, 143, 148, 130, 130, 129, 115, 114, 114, 123, 120, 114, 116, 124, 114, 110, 102, 92, 82, 72, 81, 88, 89, 101, 107, 105, 98, 100},
{131, 144, 140, 141, 148, 145, 165, 158, 162, 173, 170, 149, 157, 145, 134, 138, 136, 148, 145, 148, 154, 151, 153, 160, 150, 149, 143, 123, 121, 113, 107, 130, 131, 144, 153, 153, 140, 152, 148, 167, 168, 170, 160, 177, 170, 168, 175, 186, 157, 141, 148, 138, 131, 125, 129, 125, 119, 103, 156, 161, 173, 180, 179, 176, 173, 156, 159, 166, 129, 125, 131, 123, 131, 164, 178, 184, 186, 179, 160, 153, 140, 151, 165, 160, 161, 173, 155, 132, 139, 155, 150, 160, 177, 175, 152, 148, 145, 134, 117, 132},
{130, 147, 148, 125, 148, 133, 123, 138, 164, 190, 205, 215, 208, 186, 175, 166, 152, 144, 168, 143, 136, 155, 167, 183, 175, 198, 194, 197, 181, 187, 164, 158, 151, 132, 142, 151, 162, 161, 189, 174, 160, 150, 184, 155, 163, 168, 173, 144, 143, 137, 175, 165, 173, 187, 197, 167, 171, 169, 154, 146, 157, 155, 134, 206, 206, 193, 201, 254, 211, 223, 256, 271, 263, 259, 260, 241, 240, 265, 284, 282, 285, 266, 261, 277, 296, 293, 297, 288, 252, 235, 227, 221, 167, 160, 163, 267, 280, 284, 284, 347}}

// 11 Reading of the 8 sensors, 100 samples per sensor
{{523, 509, 507, 494, 493, 563, 571, 516, 544, 561, 610, 673, 670, 677, 674, 586, 560, 587, 573, 623, 746, 733, 723, 749, 796, 722, 724, 714, 722, 607, 581, 589, 564, 596, 648, 670, 695, 736, 696, 744, 750, 779, 771, 733, 725, 841, 827, 836, 863, 852, 748, 754, 713, 787, 822, 836, 788, 874, 826, 734, 789, 782, 690, 630, 736, 669, 730, 715, 757, 681, 664, 643, 675, 733, 743, 742, 791, 804, 750, 753, 697, 593, 601, 563, 520, 517, 492, 483, 536, 525, 553, 555, 473, 411, 420, 385, 405, 443, 450, 442},
{118, 113, 107, 106, 89, 86, 87, 93, 101, 111, 128, 131, 132, 153, 146, 139, 169, 174, 155, 157, 160, 126, 109, 123, 135, 125, 127, 148, 137, 125, 130, 128, 105, 110, 114, 112, 126, 130, 124, 138, 142, 136, 135, 142, 133, 141, 146, 145, 137, 132, 121, 117, 116, 130, 139, 150, 143, 145, 132, 119, 110, 118, 124, 121, 146, 141, 150, 144, 153, 141, 140, 132, 131, 126, 120, 121, 137, 139, 140, 132, 130, 100, 89, 106, 120, 118, 123, 127, 115, 102, 101, 103, 99, 89, 86, 82, 69, 84, 83, 83},
{67, 63, 58, 67, 72, 71, 74, 92, 89, 88, 95, 96, 87, 95, 92, 92, 133, 137, 136, 137, 137, 94, 81, 94, 103, 96, 97, 108, 93, 95, 106, 108, 100, 101, 95, 89, 86, 86, 81, 71, 75, 81, 77, 86, 89, 84, 78, 76, 66, 69, 66, 66, 71, 75, 76, 84, 87, 85, 85, 82, 79, 78, 80, 83, 89, 89, 89, 86, 78, 69, 59, 58, 59, 61, 66, 69, 67, 67, 71, 70, 68, 67, 63, 63, 63, 68, 68, 68, 66, 64, 67, 66, 64, 67, 63, 55, 54, 71, 65, 69},
{78, 74, 63, 84, 87, 88, 88, 94, 74, 73, 70, 71, 74, 94, 94, 99, 108, 109, 100, 100, 100, 89, 86, 79, 80, 77, 80, 89, 94, 96, 102, 105, 95, 105, 102, 95, 90, 92, 77, 79, 86, 91, 86, 94, 92, 90, 86, 88, 82, 89, 86, 89, 86, 87, 83, 82, 75, 79, 75, 71, 65, 66, 74, 75, 76, 91, 88, 79, 77, 75, 60, 66, 70, 70, 72, 77, 81, 78, 93, 98, 95, 96, 93, 80, 79, 83, 76, 74, 75, 73, 80, 82, 91, 89, 85, 68, 61, 59, 58, 57},
{135, 127, 104, 142, 145, 142, 141, 155, 124, 118, 117, 126, 119, 132, 142, 144, 148, 146, 139, 135, 131, 118, 108, 98, 93, 97, 110, 111, 112, 116, 117, 109, 119, 129, 130, 127, 127, 114, 100, 97, 94, 99, 100, 112, 112, 125, 121, 128, 122, 125, 109, 105, 95, 91, 83, 99, 99, 105, 98, 106, 100, 108, 109, 116, 116, 119, 113, 108, 103, 95, 78, 73, 69, 67, 64, 69, 77, 82, 98, 105, 105, 101, 96, 80, 88, 89, 87, 87, 89, 69, 66, 66, 71, 65, 69, 64, 62, 68, 72, 68},
{439, 415, 386, 478, 482, 457, 453, 508, 458, 442, 455, 480, 391, 388, 421, 409, 407, 464, 439, 429, 420, 403, 321, 310, 286, 342, 364, 366, 361, 373, 346, 316, 359, 402, 402, 394, 406, 373, 318, 290, 278, 255, 254, 289, 297, 313, 319, 337, 306, 311, 278, 255, 238, 244, 230, 257, 297, 294, 277, 295, 308, 309, 308, 349, 346, 373, 367, 364, 339, 342, 282, 245, 239, 229, 212, 227, 261, 269, 305, 313, 293, 266, 248, 190, 218, 222, 223, 222, 227, 171, 166, 165, 170, 155, 205, 209, 197, 207, 209, 181},
{521, 484, 414, 423, 452, 470, 472, 527, 553, 554, 547, 578, 545, 564, 560, 540, 506, 504, 418, 407, 420, 397, 345, 336, 292, 284, 280, 330, 342, 363, 376, 398, 374, 368, 351, 331, 390, 398, 386, 389, 387, 296, 252, 329, 365, 368, 381, 423, 367, 330, 306, 303, 262, 317, 305, 345, 362, 396, 387, 458, 448, 469, 443, 414, 350, 347, 280, 269, 269, 237, 241, 264, 277, 269, 289, 258, 265, 262, 292, 293, 288, 255, 238, 208, 262, 259, 276, 275, 280, 220, 226, 222, 247, 238, 299, 291, 289, 278, 280, 226},
{687, 614, 594, 614, 451, 461, 512, 521, 580, 622, 681, 664, 663, 672, 694, 692, 721, 722, 678, 663, 620, 604, 615, 641, 573, 621, 595, 587, 572, 621, 635, 668, 615, 592, 612, 631, 593, 634, 664, 654, 557, 621, 577, 587, 630, 734, 703, 735, 682, 630, 563, 701, 675, 762, 794, 810, 658, 726, 755, 751, 698, 752, 686, 595, 584, 595, 602, 598, 585, 489, 539, 539, 579, 592, 630, 570, 518, 508, 534, 527, 530, 566, 542, 465, 484, 482, 460, 432, 485, 461, 530, 545, 551, 499, 558, 476, 416, 432, 441, 321}}

// 12 Reading of the 8 sensors, 100 samples per sensor
{{855, 766, 778, 705, 692, 727, 724, 740, 741, 788, 764, 810, 778, 734, 701, 687, 682, 730, 762, 848, 856, 879, 856, 815, 729, 727, 763, 742, 751, 729, 727, 642, 621, 625, 628, 622, 660, 675, 766, 787, 815, 785, 780, 711, 709, 681, 639, 627, 715, 706, 733, 792, 873, 955, 1033, 1084, 1108, 1027, 937, 899, 802, 773, 835, 780, 775, 817, 776, 731, 701, 613, 657, 731, 750, 738, 758, 661, 589, 595, 662, 650, 693, 757, 745, 791, 870, 885, 859, 936, 875, 815, 841, 877, 854, 853, 866, 794, 686, 580, 588, 593},
{177, 154, 161, 147, 143, 147, 141, 144, 156, 153, 138, 133, 122, 108, 108, 121, 134, 147, 157, 172, 166, 169, 155, 135, 136, 128, 119, 124, 123, 107, 118, 122, 120, 136, 149, 148, 179, 186, 192, 186, 191, 155, 141, 128, 127, 126, 124, 133, 138, 132, 124, 139, 188, 223, 239, 264, 272, 244, 231, 245, 230, 213, 212, 188, 162, 168, 173, 174, 180, 164, 148, 136, 142, 140, 140, 147, 150, 142, 140, 138, 130, 146, 138, 168, 211, 213, 210, 224, 201, 166, 169, 156, 141, 131, 127, 124, 119, 115, 123, 114},
{105, 102, 105, 86, 93, 90, 86, 76, 79, 77, 77, 74, 72, 67, 59, 58, 66, 73, 80, 86, 87, 83, 77, 71, 75, 71, 71, 72, 79, 71, 81, 89, 90, 81, 87, 78, 74, 72, 76, 69, 68, 61, 62, 57, 54, 56, 62, 68, 70, 73, 72, 72, 71, 76, 81, 89, 99, 103, 113, 114, 111, 105, 103, 88, 83, 89, 82, 74, 80, 80, 76, 76, 83, 88, 92, 91, 92, 89, 85, 73, 70, 73, 68, 66, 76, 78, 83, 83, 80, 77, 80, 71, 71, 67, 62, 61, 56, 55, 56, 57},
{85, 77, 74, 68, 80, 89, 89, 95, 96, 89, 78, 78, 73, 72, 71, 68, 76, 80, 88, 94, 97, 91, 88, 86, 89, 88, 98, 100, 102, 95, 115, 107, 105, 99, 105, 82, 91, 90, 90, 82, 82, 66, 66, 63, 63, 58, 71, 81, 84, 81, 89, 85, 79, 76, 81, 92, 142, 187, 195, 203, 204, 180, 137, 126, 116, 122, 112, 106, 111, 103, 83, 77, 98, 96, 97, 94, 106, 88, 87, 87, 90, 86, 88, 92, 92, 95, 90, 87, 81, 86, 78, 79, 83, 78, 71, 87, 80, 75, 77, 77},
{93, 91, 88, 82, 105, 111, 107, 113, 113, 98, 103, 99, 104, 107, 112, 101, 100, 89, 90, 86, 87, 85, 86, 91, 101, 106, 110, 114, 119, 113, 120, 122, 125, 117, 135, 124, 136, 131, 129, 105, 109, 86, 83, 82, 86, 93, 95, 100, 108, 105, 104, 117, 120, 110, 113, 120, 130, 138, 141, 151, 158, 139, 143, 144, 135, 154, 153, 140, 144, 140, 99, 101, 110, 103, 97, 94, 95, 85, 84, 87, 88, 84, 86, 102, 103, 107, 111, 115, 98, 99, 92, 90, 85, 86, 88, 97, 91, 86, 87, 81},
{262, 286, 288, 285, 375, 386, 383, 390, 384, 304, 339, 294, 318, 314, 354, 314, 316, 282, 278, 267, 266, 259, 272, 330, 305, 315, 319, 305, 282, 292, 294, 318, 341, 341, 402, 404, 477, 467, 473, 426, 411, 300, 286, 245, 269, 307, 307, 309, 351, 331, 307, 345, 365, 336, 338, 367, 413, 437, 423, 463, 498, 446, 445, 464, 452, 516, 509, 493, 487, 458, 313, 315, 313, 347, 337, 332, 331, 323, 288, 283, 281, 275, 259, 307, 303, 305, 309, 323, 258, 256, 256, 238, 235, 236, 267, 278, 274, 250, 265, 238},
{385, 410, 393, 377, 415, 412, 383, 389, 347, 307, 347, 344, 382, 397, 388, 355, 350, 294, 282, 310, 302, 318, 329, 358, 358, 373, 382, 366, 393, 379, 427, 417, 438, 428, 473, 432, 443, 443, 444, 418, 402, 375, 358, 353, 325, 336, 321, 328, 292, 306, 290, 315, 315, 395, 426, 457, 545, 617, 589, 612, 657, 623, 590, 581, 613, 600, 545, 505, 501, 429, 357, 390, 377, 402, 367, 366, 352, 353, 312, 312, 291, 268, 268, 330, 328, 319, 309, 318, 248, 231, 257, 270, 269, 282, 332, 325, 310, 292, 279, 235},
{689, 654, 716, 597, 633, 649, 631, 645, 613, 655, 720, 751, 724, 760, 762, 746, 731, 723, 757, 758, 692, 707, 703, 606, 639, 662, 653, 653, 760, 691, 770, 784, 809, 776, 858, 798, 792, 731, 705, 567, 518, 445, 462, 534, 528, 544, 559, 584, 573, 577, 657, 707, 696, 753, 791, 768, 765, 793, 801, 862, 865, 835, 917, 904, 846, 935, 913, 902, 840, 845, 796, 837, 741, 736, 685, 637, 640, 616, 602, 627, 568, 509, 547, 587, 611, 605, 677, 700, 688, 723, 821, 858, 885, 847, 811, 773, 656, 568, 579, 562}}

// 13 Reading of the 8 sensors, 100 samples per sensor
{{625, 521, 581, 542, 567, 618, 627, 549, 534, 540, 450, 447, 437, 475, 486, 529, 615, 630, 585, 602, 591, 511, 509, 533, 479, 441, 466, 486, 443, 439, 489, 488, 520, 555, 590, 573, 549, 499, 502, 489, 482, 467, 453, 404, 354, 351, 325, 337, 340, 340, 327, 387, 436, 490, 494, 471, 439, 412, 383, 419, 447, 475, 449, 443, 404, 405, 391, 471, 459, 458, 435, 450, 335, 333, 382, 388, 318, 366, 334, 263, 245, 271, 203, 228, 224, 234, 287, 287, 297, 306, 307, 276, 338, 371, 368, 406, 473, 460, 416, 467},
{144, 148, 158, 132, 129, 123, 113, 97, 82, 85, 91, 91, 92, 98, 129, 126, 121, 129, 128, 107, 104, 108, 98, 100, 83, 87, 86, 84, 88, 93, 93, 96, 104, 104, 101, 108, 102, 107, 104, 106, 105, 104, 91, 85, 79, 74, 72, 70, 68, 66, 60, 66, 71, 76, 77, 85, 82, 78, 77, 77, 66, 65, 64, 70, 81, 87, 86, 92, 90, 78, 76, 83, 74, 72, 85, 84, 88, 95, 91, 78, 74, 68, 58, 67, 66, 65, 63, 63, 53, 52, 61, 62, 67, 71, 74, 74, 68, 69, 69, 74},
{157, 130, 114, 116, 105, 108, 105, 101, 99, 91, 89, 88, 92, 89, 124, 127, 125, 125, 129, 112, 107, 106, 105, 98, 86, 111, 119, 133, 155, 160, 147, 150, 141, 122, 112, 108, 95, 105, 109, 114, 115, 109, 107, 111, 111, 112, 114, 98, 97, 92, 98, 99, 116, 107, 112, 140, 144, 133, 141, 138, 98, 92, 94, 77, 72, 86, 103, 105, 105, 106, 99, 78, 70, 68, 67, 62, 84, 87, 93, 93, 90, 68, 63, 63, 60, 58, 53, 54, 39, 38, 42, 47, 47, 56, 59, 58, 60, 60, 55, 57},
{86, 84, 81, 80, 72, 63, 61, 63, 64, 64, 67, 69, 70, 73, 75, 76, 79, 78, 76, 84, 79, 77, 75, 77, 64, 75, 80, 88, 90, 96, 89, 85, 81, 78, 70, 84, 83, 80, 78, 87, 72, 74, 72, 73, 63, 67, 63, 69, 66, 64, 67, 72, 66, 67, 82, 82, 82, 81, 90, 82, 78, 75, 78, 65, 65, 64, 68, 71, 71, 69, 70, 65, 54, 53, 53, 59, 62, 68, 70, 77, 68, 68, 63, 65, 55, 53, 46, 49, 45, 43, 46, 48, 45, 46, 49, 48, 46, 46, 52, 50},
{110, 91, 90, 78, 73, 64, 60, 62, 66, 71, 76, 83, 82, 84, 96, 94, 93, 93, 90, 71, 71, 68, 64, 69, 69, 69, 76, 81, 86, 93, 92, 86, 87, 80, 70, 80, 80, 76, 72, 74, 62, 60, 58, 56, 57, 57, 59, 57, 57, 60, 66, 62, 73, 76, 76, 70, 79, 68, 74, 70, 72, 69, 75, 69, 77, 82, 78, 80, 84, 76, 69, 69, 59, 59, 67, 74, 75, 87, 87, 78, 74, 75, 67, 58, 58, 53, 44, 36, 37, 38, 41, 39, 46, 45, 44, 44, 48, 42, 49, 50},
{293, 285, 286, 243, 240, 210, 198, 186, 200, 189, 186, 194, 201, 187, 230, 251, 248, 237, 238, 213, 198, 209, 216, 217, 199, 200, 208, 211, 217, 235, 233, 214, 226, 215, 197, 199, 193, 194, 185, 201, 206, 208, 187, 178, 154, 154, 143, 131, 131, 162, 140, 135, 203, 215, 209, 215, 221, 165, 161, 151, 148, 155, 166, 160, 200, 198, 188, 196, 212, 162, 155, 171, 146, 135, 193, 201, 196, 214, 215, 172, 173, 189, 190, 176, 166, 159, 131, 98, 99, 111, 107, 99, 108, 114, 107, 125, 128, 117, 131, 132},
{289, 292, 310, 291, 302, 279, 255, 242, 224, 180, 175, 231, 244, 246, 266, 296, 256, 231, 240, 257, 247, 257, 276, 272, 245, 222, 209, 190, 181, 211, 211, 213, 217, 222, 200, 208, 213, 244, 245, 252, 269, 300, 264, 250, 227, 207, 143, 151, 146, 166, 163, 158, 177, 184, 228, 227, 236, 235, 228, 175, 180, 185, 191, 213, 246, 237, 221, 202, 234, 189, 188, 206, 197, 149, 153, 176, 161, 170, 168, 162, 134, 137, 134, 110, 109, 111, 108, 107, 120, 126, 125, 125, 144, 143, 141, 153, 157, 144, 143, 140},
{666, 581, 581, 597, 595, 523, 481, 489, 477, 489, 506, 536, 510, 491, 497, 477, 456, 520, 493, 482, 534, 573, 533, 533, 524, 509, 497, 484, 536, 577, 570, 523, 527, 455, 441, 422, 408, 436, 442, 407, 450, 450, 426, 450, 439, 407, 402, 418, 351, 382, 350, 341, 440, 515, 563, 551, 569, 485, 431, 352, 389, 400, 427, 411, 532, 505, 474, 433, 493, 310, 315, 308, 300, 270, 351, 366, 374, 400, 346, 255, 219, 210, 164, 155, 151, 161, 185, 177, 186, 193, 184, 177, 348, 365, 365, 373, 419, 308, 288, 293}}

// 14 Reading of the 8 sensors, 100 samples per sensor
{{502, 504, 461, 442, 433, 411, 437, 438, 437, 439, 473, 482, 467, 529, 558, 519, 525, 522, 462, 426, 418, 404, 411, 438, 438, 446, 433, 449, 430, 445, 443, 459, 473, 456, 435, 459, 455, 425, 427, 441, 454, 455, 480, 469, 456, 479, 453, 429, 427, 429, 367, 353, 331, 335, 350, 396, 417, 426, 436, 462, 447, 419, 476, 495, 455, 407, 434, 367, 354, 417, 423, 402, 400, 371, 287, 391, 473, 476, 540, 541, 488, 435, 426, 413, 474, 457, 438, 441, 415, 456, 472, 472, 479, 460, 357, 351, 349, 320, 411, 408},
{93, 90, 83, 81, 77, 84, 79, 88, 89, 88, 86, 92, 88, 96, 103, 98, 97, 90, 74, 65, 70, 68, 69, 80, 83, 80, 76, 81, 77, 71, 70, 69, 65, 61, 72, 76, 78, 79, 78, 70, 69, 80, 88, 87, 90, 97, 91, 84, 89, 85, 75, 75, 76, 68, 67, 79, 75, 77, 84, 88, 84, 82, 84, 83, 78, 71, 74, 71, 68, 74, 73, 72, 71, 68, 65, 73, 78, 76, 91, 88, 86, 81, 80, 68, 78, 73, 74, 73, 69, 68, 75, 74, 75, 76, 67, 58, 60, 60, 80, 81},
{75, 72, 75, 69, 69, 61, 65, 68, 73, 69, 77, 85, 85, 92, 96, 91, 79, 83, 72, 77, 75, 76, 69, 69, 64, 66, 67, 73, 77, 82, 93, 99, 97, 99, 103, 89, 83, 80, 77, 67, 72, 75, 81, 74, 75, 78, 88, 80, 86, 80, 76, 64, 75, 69, 70, 71, 66, 52, 52, 68, 65, 73, 78, 78, 64, 84, 78, 75, 77, 77, 52, 52, 61, 61, 61, 63, 68, 61, 59, 57, 55, 50, 48, 49, 50, 57, 60, 58, 55, 57, 51, 44, 48, 49, 46, 49, 56, 56, 71, 78},
{78, 81, 80, 78, 69, 66, 60, 62, 66, 70, 80, 82, 79, 81, 80, 68, 63, 65, 61, 62, 61, 62, 59, 53, 49, 55, 57, 62, 71, 71, 67, 67, 66, 59, 55, 53, 52, 49, 47, 54, 62, 62, 59, 63, 62, 71, 71, 77, 78, 74, 60, 57, 51, 48, 52, 55, 61, 59, 56, 52, 51, 52, 61, 61, 64, 64, 59, 51, 52, 49, 42, 42, 65, 71, 73, 74, 78, 66, 61, 61, 63, 57, 53, 54, 52, 61, 85, 89, 90, 91, 84, 64, 56, 54, 52, 50, 51, 54, 58, 64},
{67, 70, 64, 65, 56, 61, 57, 61, 58, 65, 73, 72, 65, 66, 69, 61, 64, 65, 70, 63, 59, 56, 58, 57, 57, 57, 56, 62, 62, 60, 61, 62, 54, 53, 56, 58, 57, 59, 53, 51, 54, 62, 65, 65, 67, 63, 62, 62, 63, 60, 59, 53, 52, 53, 53, 55, 59, 55, 51, 49, 47, 49, 59, 60, 65, 63, 61, 51, 52, 46, 46, 45, 47, 45, 48, 50, 51, 48, 56, 55, 62, 59, 64, 63, 61, 55, 62, 61, 58, 60, 62, 54, 53, 53, 51, 45, 46, 45, 49, 51},
{203, 208, 187, 171, 146, 146, 140, 142, 139, 153, 169, 164, 162, 162, 179, 172, 194, 181, 181, 156, 148, 126, 129, 131, 127, 117, 105, 116, 124, 119, 125, 132, 120, 112, 138, 148, 143, 148, 148, 122, 130, 142, 138, 137, 150, 135, 152, 159, 154, 148, 149, 119, 113, 116, 106, 112, 125, 124, 115, 123, 111, 129, 130, 143, 150, 156, 135, 137, 132, 127, 120, 130, 124, 120, 131, 129, 136, 138, 139, 123, 139, 124, 142, 147, 150, 139, 145, 131, 126, 127, 133, 125, 125, 126, 118, 121, 119, 122, 133, 136},
{247, 237, 234, 233, 214, 190, 179, 195, 233, 259, 316, 316, 289, 267, 277, 224, 230, 227, 232, 197, 234, 226, 228, 208, 210, 153, 154, 160, 156, 157, 153, 152, 166, 157, 175, 183, 175, 159, 162, 134, 134, 156, 166, 172, 172, 170, 176, 178, 193, 192, 197, 177, 168, 150, 156, 148, 154, 145, 144, 146, 141, 142, 146, 141, 128, 143, 132, 130, 145, 164, 150, 160, 164, 154, 135, 136, 131, 124, 145, 139, 166, 170, 186, 173, 183, 163, 154, 144, 145, 151, 145, 143, 143, 136, 119, 152, 156, 147, 152, 155},
{601, 567, 530, 534, 473, 450, 419, 380, 430, 429, 420, 473, 461, 460, 568, 571, 552, 593, 564, 497, 496, 531, 487, 502, 501, 502, 481, 505, 513, 466, 472, 395, 423, 377, 406, 445, 441, 459, 486, 459, 468, 489, 500, 470, 559, 517, 520, 501, 519, 498, 487, 463, 419, 415, 335, 401, 433, 411, 486, 506, 457, 511, 537, 484, 488, 482, 486, 468, 445, 422, 425, 313, 378, 425, 392, 438, 433, 377, 402, 430, 437, 471, 484, 451, 462, 449, 417, 447, 419, 427, 393, 404, 378, 406, 359, 426, 459, 453, 432, 446}}

// 15 Reading of the 8 sensors, 100 samples per sensor
{{513, 502, 465, 432, 433, 420, 465, 475, 466, 453, 431, 384, 342, 394, 442, 463, 456, 532, 496, 459, 476, 470, 432, 465, 449, 451, 493, 456, 434, 446, 417, 369, 381, 420, 433, 439, 522, 539, 497, 535, 531, 446, 456, 457, 448, 449, 477, 448, 472, 451, 434, 422, 412, 390, 368, 392, 381, 403, 440, 431, 403, 416, 403, 357, 365, 358, 359, 348, 328, 333, 366, 357, 376, 458, 433, 415, 409, 392, 321, 375, 383, 392, 388, 392, 489, 513, 500, 533, 528, 431, 424, 421, 406, 391, 396, 413, 451, 450, 477, 451},
{97, 93, 98, 87, 91, 88, 101, 96, 98, 96, 94, 87, 81, 83, 91, 100, 96, 106, 101, 88, 93, 90, 89, 93, 96, 81, 93, 87, 85, 82, 85, 74, 79, 84, 86, 83, 92, 94, 95, 109, 112, 109, 103, 94, 81, 74, 69, 72, 93, 93, 92, 95, 103, 86, 93, 97, 93, 87, 93, 81, 87, 86, 80, 74, 74, 63, 70, 77, 74, 80, 84, 80, 85, 102, 101, 97, 98, 89, 74, 71, 72, 73, 81, 84, 91, 102, 99, 100, 99, 97, 87, 86, 84, 80, 77, 77, 76, 73, 79, 79},
{58, 59, 68, 89, 89, 88, 97, 102, 82, 91, 107, 102, 92, 94, 92, 75, 73, 78, 80, 82, 91, 91, 91, 94, 95, 88, 91, 89, 86, 75, 78, 75, 79, 73, 77, 80, 78, 71, 75, 79, 93, 104, 102, 99, 92, 73, 60, 62, 68, 67, 68, 75, 81, 75, 94, 96, 88, 110, 140, 133, 160, 159, 141, 113, 114, 62, 77, 85, 95, 90, 92, 82, 121, 126, 131, 133, 132, 94, 96, 89, 87, 92, 88, 92, 90, 91, 92, 95, 75, 78, 75, 68, 66, 67, 61, 58, 61, 65, 57, 66},
{64, 67, 66, 67, 67, 69, 72, 67, 67, 68, 70, 64, 69, 71, 63, 59, 64, 63, 65, 67, 68, 68, 65, 67, 66, 65, 63, 61, 53, 60, 62, 59, 58, 54, 49, 51, 54, 56, 59, 56, 53, 60, 58, 58, 62, 62, 52, 58, 56, 56, 58, 61, 55, 58, 58, 57, 63, 67, 71, 67, 79, 71, 69, 63, 66, 49, 53, 55, 58, 63, 65, 69, 73, 74, 74, 73, 70, 69, 70, 64, 68, 65, 67, 66, 65, 62, 63, 55, 50, 52, 53, 48, 47, 49, 49, 45, 48, 66, 67, 70},
{73, 79, 78, 83, 75, 85, 76, 70, 72, 73, 76, 87, 92, 91, 96, 89, 79, 80, 80, 73, 74, 72, 68, 70, 79, 72, 73, 72, 66, 56, 65, 67, 65, 65, 62, 56, 58, 64, 69, 66, 67, 61, 58, 56, 60, 63, 65, 65, 68, 67, 66, 72, 68, 63, 61, 54, 51, 52, 51, 52, 56, 58, 65, 65, 64, 64, 56, 52, 57, 72, 71, 72, 72, 70, 59, 60, 61, 62, 63, 61, 59, 58, 59, 56, 58, 59, 62, 62, 60, 60, 63, 56, 55, 65, 64, 59, 64, 63, 58, 64},
{197, 215, 242, 252, 233, 273, 266, 235, 241, 250, 232, 235, 248, 240, 275, 251, 230, 231, 235, 182, 206, 216, 207, 193, 233, 212, 234, 227, 224, 189, 201, 187, 186, 193, 195, 186, 171, 179, 180, 160, 168, 163, 149, 158, 165, 181, 167, 170, 178, 177, 154, 165, 164, 147, 142, 140, 138, 144, 139, 154, 169, 181, 175, 177, 171, 160, 151, 150, 144, 164, 158, 153, 157, 157, 136, 133, 132, 125, 134, 141, 136, 138, 154, 146, 167, 176, 186, 188, 181, 156, 158, 134, 118, 152, 155, 150, 183, 182, 170, 199},
{242, 284, 281, 282, 244, 255, 203, 221, 241, 248, 233, 254, 238, 216, 231, 229, 191, 199, 210, 183, 193, 212, 192, 175, 219, 212, 200, 203, 212, 192, 204, 209, 200, 219, 210, 203, 200, 201, 189, 175, 165, 173, 174, 160, 165, 183, 167, 161, 185, 179, 163, 194, 196, 199, 214, 227, 211, 258, 237, 231, 221, 230, 183, 182, 172, 181, 193, 186, 210, 219, 207, 176, 170, 161, 150, 161, 162, 172, 170, 170, 156, 200, 201, 193, 240, 242, 220, 233, 224, 181, 201, 188, 174, 195, 191, 169, 191, 185, 176, 183},
{494, 488, 507, 474, 426, 536, 521, 479, 517, 483, 370, 406, 421, 374, 449, 423, 358, 456, 449, 360, 365, 392, 370, 375, 412, 414, 405, 328, 340, 301, 388, 371, 364, 408, 461, 392, 457, 460, 406, 389, 388, 397, 462, 474, 444, 507, 506, 442, 486, 489, 477, 432, 419, 401, 475, 435, 424, 528, 517, 464, 488, 496, 410, 411, 408, 422, 430, 451, 473, 456, 418, 443, 405, 362, 430, 415, 407, 424, 414, 342, 380, 408, 463, 495, 551, 553, 500, 483, 457, 402, 449, 454, 422, 438, 484, 438, 466, 459, 469, 451}}

// 16 Reading of the 8 sensors, 100 samples per sensor
{{108, 110, 114, 121, 116, 134, 130, 127, 188, 188, 171, 176, 178, 143, 155, 155, 151, 167, 158, 150, 164, 168, 196, 192, 191, 184, 219, 180, 171, 172, 171, 124, 121, 153, 145, 163, 187, 190, 173, 192, 172, 152, 166, 163, 199, 212, 313, 359, 434, 442, 454, 445, 459, 417, 421, 407, 411, 387, 440, 414, 440, 407, 373, 313, 378, 367, 442, 444, 425, 409, 414, 301, 322, 359, 330, 307, 324, 333, 303, 365, 386, 404, 376, 393, 337, 322, 288, 314, 269, 272, 257, 291, 269, 269, 237, 267, 283, 312, 369, 383},
{39, 46, 43, 45, 45, 45, 37, 41, 41, 42, 36, 41, 35, 33, 36, 37, 33, 39, 39, 38, 42, 43, 44, 44, 42, 38, 44, 42, 44, 46, 47, 40, 40, 39, 37, 39, 45, 45, 43, 46, 45, 42, 40, 44, 56, 55, 67, 70, 78, 78, 84, 83, 82, 81, 75, 70, 66, 70, 67, 66, 67, 58, 53, 54, 61, 62, 68, 68, 70, 66, 66, 60, 74, 72, 70, 69, 70, 60, 52, 51, 51, 52, 47, 46, 44, 49, 45, 56, 56, 55, 50, 54, 48, 50, 51, 57, 58, 58, 59, 60},
{43, 49, 47, 46, 46, 49, 41, 41, 41, 42, 36, 41, 44, 42, 44, 50, 46, 48, 47, 45, 46, 46, 44, 45, 45, 42, 41, 42, 48, 50, 47, 49, 52, 43, 42, 43, 42, 35, 36, 42, 45, 45, 45, 50, 48, 46, 44, 48, 47, 44, 50, 53, 52, 52, 51, 47, 49, 53, 51, 53, 50, 44, 39, 47, 51, 50, 50, 49, 44, 39, 42, 40, 45, 49, 51, 50, 51, 49, 45, 40, 41, 44, 48, 46, 49, 51, 52, 48, 48, 45, 43, 42, 39, 40, 40, 50, 49, 51, 50, 55},
{42, 42, 43, 45, 50, 49, 49, 48, 45, 39, 42, 44, 37, 36, 40, 35, 38, 41, 45, 49, 51, 52, 56, 60, 55, 57, 55, 53, 49, 49, 49, 46, 43, 40, 43, 43, 46, 46, 49, 46, 43, 40, 46, 46, 54, 55, 56, 52, 51, 43, 43, 46, 51, 53, 55, 58, 55, 64, 60, 59, 56, 55, 39, 43, 50, 50, 50, 54, 59, 53, 51, 54, 59, 53, 58, 62, 61, 54, 58, 55, 56, 58, 57, 53, 57, 53, 53, 55, 55, 49, 51, 49, 48, 49, 53, 56, 56, 56, 55, 60},
{41, 42, 34, 39, 47, 47, 47, 51, 49, 41, 42, 50, 48, 48, 49, 50, 47, 47, 46, 46, 45, 44, 45, 44, 44, 49, 46, 45, 45, 43, 39, 36, 32, 35, 34, 38, 43, 46, 46, 51, 48, 48, 46, 46, 48, 50, 49, 50, 53, 54, 56, 57, 57, 54, 48, 48, 49, 46, 52, 51, 48, 43, 46, 46, 55, 53, 54, 53, 50, 42, 41, 41, 43, 43, 42, 49, 47, 49, 51, 52, 51, 55, 53, 52, 60, 55, 61, 60, 58, 50, 54, 45, 47, 49, 50, 47, 58, 54, 57, 66},
{115, 116, 113, 115, 117, 118, 121, 119, 107, 110, 114, 130, 129, 131, 126, 122, 103, 103, 105, 102, 104, 100, 108, 117, 116, 118, 115, 130, 121, 111, 109, 110, 80, 78, 81, 85, 93, 96, 97, 120, 117, 126, 131, 133, 129, 135, 149, 152, 173, 184, 223, 213, 210, 192, 170, 120, 115, 109, 120, 132, 120, 116, 122, 136, 130, 134, 147, 141, 131, 126, 126, 111, 132, 129, 137, 150, 152, 141, 149, 146, 132, 125, 119, 114, 134, 133, 155, 153, 145, 140, 158, 140, 151, 157, 146, 125, 184, 177, 180, 203},
{108, 114, 107, 135, 129, 126, 124, 121, 83, 122, 125, 152, 157, 163, 146, 144, 128, 129, 122, 136, 141, 146, 152, 150, 139, 131, 121, 137, 141, 130, 143, 139, 123, 139, 140, 146, 144, 135, 117, 153, 145, 148, 152, 153, 120, 116, 148, 152, 166, 185, 259, 259, 260, 257, 252, 183, 165, 164, 163, 163, 157, 155, 156, 154, 151, 151, 163, 157, 166, 152, 160, 138, 167, 164, 165, 170, 192, 178, 168, 167, 157, 130, 129, 134, 173, 169, 203, 198, 198, 178, 181, 156, 149, 146, 137, 126, 206, 208, 212, 248},
{94, 97, 121, 114, 121, 123, 130, 103, 108, 127, 124, 117, 111, 126, 114, 126, 126, 131, 112, 128, 123, 129, 137, 141, 118, 122, 161, 158, 159, 174, 165, 127, 129, 143, 124, 132, 163, 157, 137, 208, 210, 198, 293, 302, 268, 315, 375, 343, 366, 381, 364, 322, 344, 323, 307, 290, 343, 291, 281, 306, 344, 284, 277, 345, 322, 285, 297, 294, 315, 328, 343, 313, 434, 390, 384, 401, 464, 362, 336, 330, 347, 282, 272, 301, 343, 279, 262, 366, 361, 323, 325, 328, 271, 245, 250, 243, 376, 345, 345, 425}}

// 17 Reading of the 8 sensors, 100 samples per sensor
{{670, 639, 661, 735, 648, 646, 643, 640, 569, 559, 491, 528, 476, 460, 450, 491, 423, 422, 470, 531, 641, 677, 738, 754, 876, 815, 849, 828, 829, 757, 730, 698, 697, 666, 545, 542, 544, 516, 511, 541, 643, 635, 658, 636, 610, 584, 619, 623, 666, 725, 711, 727, 718, 743, 719, 694, 650, 635, 595, 567, 598, 596, 597, 578, 588, 533, 504, 497, 507, 498, 486, 508, 508, 532, 508, 504, 490, 448, 418, 505, 515, 570, 580, 562, 515, 532, 464, 506, 526, 518, 477, 478, 446, 435, 431, 465, 458, 442, 424, 477},
{129, 122, 120, 126, 110, 111, 100, 100, 96, 87, 78, 88, 81, 76, 92, 108, 102, 109, 115, 107, 107, 115, 122, 131, 145, 139, 134, 137, 141, 134, 128, 131, 120, 131, 120, 123, 130, 129, 99, 110, 121, 109, 114, 116, 109, 116, 126, 131, 149, 149, 134, 133, 124, 110, 120, 142, 155, 155, 150, 145, 125, 104, 109, 105, 101, 104, 95, 87, 94, 97, 99, 100, 103, 98, 98, 96, 95, 91, 92, 91, 91, 100, 102, 98, 93, 93, 84, 90, 103, 113, 116, 115, 109, 100, 88, 78, 83, 85, 82, 86},
{77, 70, 74, 68, 69, 77, 76, 72, 94, 87, 83, 90, 90, 89, 86, 91, 92, 92, 77, 88, 85, 95, 97, 91, 96, 114, 108, 111, 113, 119, 104, 101, 98, 114, 95, 94, 96, 97, 96, 114, 114, 111, 121, 105, 93, 116, 121, 110, 119, 119, 98, 100, 114, 107, 110, 124, 145, 141, 144, 143, 130, 115, 124, 129, 123, 125, 117, 100, 85, 85, 116, 109, 113, 117, 124, 108, 108, 102, 94, 108, 89, 93, 97, 100, 84, 90, 86, 92, 91, 89, 93, 91, 83, 89, 86, 77, 76, 76, 80, 74},
{83, 77, 79, 77, 68, 66, 66, 63, 62, 56, 57, 58, 64, 68, 71, 76, 76, 73, 75, 80, 74, 73, 73, 75, 71, 73, 72, 73, 68, 70, 65, 68, 67, 65, 65, 66, 63, 65, 67, 71, 74, 70, 73, 70, 66, 61, 69, 65, 71, 78, 86, 84, 83, 84, 87, 97, 116, 125, 127, 124, 117, 99, 95, 87, 79, 72, 71, 61, 58, 62, 73, 70, 75, 77, 79, 74, 75, 77, 75, 77, 74, 75, 69, 78, 85, 83, 80, 85, 85, 84, 92, 98, 94, 90, 81, 74, 65, 69, 72, 72},
{67, 66, 70, 71, 72, 69, 65, 64, 61, 63, 62, 61, 61, 65, 64, 71, 77, 81, 82, 89, 88, 82, 76, 78, 69, 68, 73, 76, 66, 70, 72, 77, 76, 86, 85, 81, 82, 85, 79, 77, 86, 74, 83, 79, 78, 68, 68, 52, 65, 67, 70, 73, 76, 68, 75, 79, 77, 76, 79, 72, 65, 63, 76, 72, 76, 78, 79, 64, 66, 57, 63, 66, 67, 64, 73, 71, 69, 68, 68, 62, 54, 53, 54, 59, 67, 72, 74, 72, 70, 62, 60, 59, 60, 63, 58, 58, 55, 59, 56, 58},
{172, 186, 186, 217, 216, 219, 208, 209, 170, 201, 198, 202, 190, 198, 193, 218, 224, 242, 245, 242, 224, 210, 191, 189, 172, 172, 167, 175, 169, 178, 174, 192, 195, 198, 203, 207, 210, 204, 210, 189, 190, 167, 185, 172, 178, 165, 167, 131, 154, 161, 162, 161, 175, 156, 154, 161, 156, 143, 149, 136, 126, 118, 145, 141, 153, 162, 163, 137, 142, 136, 133, 141, 150, 136, 162, 183, 178, 168, 170, 140, 101, 103, 102, 103, 121, 119, 117, 125, 122, 97, 107, 130, 121, 135, 141, 139, 119, 120, 100, 104},
{249, 260, 246, 232, 222, 214, 190, 195, 183, 231, 228, 234, 224, 234, 196, 241, 250, 249, 285, 287, 273, 259, 246, 206, 199, 188, 198, 209, 206, 215, 206, 212, 210, 207, 212, 198, 189, 222, 219, 197, 213, 198, 157, 152, 147, 140, 138, 122, 123, 128, 112, 128, 134, 139, 159, 182, 177, 182, 179, 172, 145, 143, 177, 187, 189, 205, 207, 168, 177, 178, 192, 200, 202, 181, 180, 175, 164, 166, 170, 161, 145, 155, 150, 155, 178, 160, 152, 177, 182, 157, 164, 169, 139, 145, 163, 180, 175, 193, 178, 170},
{552, 560, 502, 491, 477, 465, 451, 500, 504, 447, 475, 496, 465, 489, 472, 421, 448, 439, 513, 552, 567, 513, 541, 504, 485, 505, 542, 512, 495, 504, 490, 524, 616, 595, 549, 525, 484, 396, 409, 431, 498, 477, 446, 452, 423, 424, 441, 454, 435, 435, 427, 384, 380, 391, 387, 432, 435, 489, 494, 502, 450, 461, 476, 479, 497, 508, 504, 444, 418, 427, 437, 451, 464, 447, 446, 441, 421, 371, 450, 443, 384, 463, 467, 442, 443, 432, 388, 413, 430, 432, 437, 429, 416, 357, 378, 417, 389, 483, 482, 476}}

// 18 Reading of the 8 sensors, 100 samples per sensor
{{391, 361, 403, 462, 511, 507, 538, 519, 482, 465, 472, 469, 452, 426, 400, 380, 393, 483, 486, 539, 584, 544, 479, 504, 456, 390, 436, 428, 410, 446, 486, 533, 553, 567, 536, 525, 458, 501, 479, 466, 447, 438, 340, 377, 371, 393, 384, 433, 407, 438, 473, 462, 413, 417, 455, 387, 395, 415, 428, 329, 302, 348, 327, 300, 437, 462, 468, 533, 552, 474, 460, 479, 447, 446, 429, 453, 438, 421, 385, 395, 441, 433, 422, 449, 440, 376, 352, 385, 419, 431, 448, 444, 434, 389, 391, 428, 410, 367, 364, 384},
{81, 78, 79, 85, 91, 96, 100, 108, 107, 100, 88, 84, 77, 71, 71, 79, 80, 78, 79, 82, 78, 76, 78, 77, 75, 74, 81, 81, 83, 89, 91, 87, 95, 93, 88, 84, 80, 79, 77, 89, 96, 106, 95, 99, 92, 88, 72, 69, 70, 61, 65, 68, 72, 74, 77, 73, 76, 75, 69, 66, 62, 60, 62, 63, 72, 72, 81, 80, 78, 67, 70, 65, 61, 71, 70, 69, 72, 75, 66, 74, 81, 77, 72, 76, 66, 61, 61, 69, 72, 81, 77, 75, 70, 64, 60, 73, 71, 71, 72, 70},
{97, 90, 98, 77, 87, 100, 103, 98, 101, 94, 73, 74, 75, 68, 63, 56, 48, 41, 52, 62, 63, 87, 89, 87, 84, 85, 83, 83, 84, 91, 95, 84, 88, 83, 79, 74, 67, 58, 60, 58, 63, 79, 83, 83, 81, 76, 57, 53, 52, 45, 43, 44, 44, 40, 40, 44, 43, 43, 43, 46, 44, 51, 58, 59, 59, 61, 60, 54, 54, 50, 51, 45, 45, 47, 48, 40, 42, 40, 38, 38, 40, 42, 39, 42, 39, 39, 36, 39, 36, 41, 41, 48, 51, 50, 48, 49, 41, 36, 36, 35},
{52, 45, 51, 58, 58, 64, 65, 65, 60, 63, 56, 59, 61, 59, 59, 57, 56, 52, 59, 63, 66, 65, 67, 68, 63, 61, 63, 64, 72, 73, 73, 73, 78, 65, 65, 77, 75, 66, 71, 73, 64, 71, 71, 65, 65, 60, 53, 56, 63, 60, 61, 57, 55, 54, 47, 58, 58, 55, 49, 53, 44, 45, 51, 55, 57, 53, 58, 58, 54, 49, 49, 43, 45, 49, 53, 54, 55, 52, 50, 49, 51, 51, 50, 51, 48, 48, 48, 47, 43, 47, 44, 46, 50, 52, 51, 58, 58, 53, 54, 52},
{81, 79, 86, 91, 93, 93, 96, 95, 85, 81, 69, 69, 66, 63, 70, 72, 75, 80, 86, 81, 84, 80, 73, 69, 81, 89, 93, 103, 110, 104, 96, 100, 95, 82, 90, 103, 101, 97, 104, 99, 87, 97, 97, 91, 99, 97, 83, 86, 87, 72, 67, 62, 58, 76, 71, 75, 74, 72, 52, 57, 57, 59, 64, 65, 64, 60, 65, 57, 57, 57, 59, 55, 60, 64, 63, 67, 68, 69, 65, 63, 58, 57, 50, 48, 49, 52, 49, 50, 51, 51, 51, 52, 60, 63, 62, 64, 68, 63, 62, 61},
{276, 273, 276, 291, 298, 272, 278, 282, 247, 269, 243, 235, 234, 247, 266, 269, 285, 299, 298, 252, 261, 258, 226, 216, 223, 253, 266, 288, 324, 324, 300, 293, 278, 228, 263, 289, 279, 285, 314, 290, 267, 330, 319, 295, 319, 315, 257, 258, 256, 212, 199, 168, 154, 219, 210, 214, 227, 230, 172, 187, 177, 163, 180, 175, 160, 160, 183, 173, 169, 161, 174, 152, 141, 159, 155, 166, 175, 184, 173, 173, 156, 147, 129, 126, 129, 125, 110, 128, 135, 132, 140, 143, 135, 131, 126, 135, 147, 144, 165, 165},
{231, 215, 256, 315, 321, 327, 334, 323, 270, 305, 285, 296, 261, 254, 262, 255, 247, 257, 268, 281, 287, 276, 274, 276, 228, 236, 265, 275, 274, 267, 276, 305, 293, 272, 289, 273, 241, 280, 304, 303, 313, 315, 282, 256, 234, 229, 202, 208, 217, 213, 199, 183, 171, 231, 217, 222, 236, 247, 196, 219, 215, 197, 192, 187, 176, 169, 196, 194, 187, 171, 180, 190, 192, 193, 206, 199, 186, 200, 195, 179, 179, 153, 117, 152, 167, 168, 172, 180, 157, 134, 138, 140, 131, 137, 149, 152, 164, 180, 180, 192},
{402, 349, 376, 492, 495, 474, 471, 485, 380, 384, 378, 421, 397, 378, 506, 491, 497, 528, 525, 445, 484, 449, 415, 483, 501, 471, 510, 528, 469, 433, 460, 470, 518, 540, 568, 545, 530, 460, 446, 465, 466, 457, 437, 452, 471, 469, 492, 512, 524, 459, 458, 416, 391, 425, 397, 432, 420, 431, 369, 355, 299, 352, 330, 306, 335, 330, 306, 351, 347, 316, 323, 316, 290, 294, 273, 332, 313, 307, 323, 374, 328, 337, 345, 336, 285, 268, 298, 269, 277, 307, 329, 302, 317, 356, 358, 391, 430, 435, 425, 446}}

// 19 Reading of the 8 sensors, 100 samples per sensor
{{600, 607, 595, 537, 590, 605, 602, 645, 577, 595, 608, 601, 587, 688, 652, 665, 652, 629, 589, 592, 544, 604, 596, 524, 471, 483, 452, 480, 491, 501, 562, 543, 529, 534, 517, 421, 413, 424, 414, 423, 431, 407, 387, 381, 417, 467, 486, 479, 527, 499, 453, 432, 470, 481, 478, 518, 567, 513, 454, 475, 434, 379, 394, 389, 368, 403, 394, 408, 420, 451, 493, 494, 476, 456, 412, 350, 361, 413, 439, 509, 575, 603, 569, 598, 528, 461, 465, 495, 425, 432, 412, 373, 358, 391, 459, 433, 435, 466, 476, 392},
{97, 107, 110, 100, 107, 106, 94, 101, 95, 99, 106, 112, 101, 116, 114, 109, 111, 113, 108, 105, 103, 95, 94, 85, 82, 82, 80, 83, 83, 83, 85, 87, 83, 83, 75, 68, 72, 80, 81, 85, 90, 83, 82, 90, 92, 89, 95, 94, 92, 87, 86, 82, 83, 86, 87, 93, 96, 89, 81, 78, 71, 70, 73, 73, 82, 87, 81, 80, 78, 83, 86, 90, 89, 92, 80, 74, 72, 77, 81, 83, 84, 94, 89, 87, 87, 87, 79, 85, 79, 77, 75, 74, 66, 72, 75, 69, 73, 73, 77, 74},
{105, 111, 115, 116, 106, 89, 78, 77, 69, 75, 72, 87, 86, 101, 102, 107, 114, 120, 115, 117, 122, 116, 108, 106, 103, 95, 100, 103, 99, 103, 100, 85, 80, 73, 61, 66, 59, 66, 77, 86, 84, 87, 85, 82, 79, 80, 82, 87, 84, 82, 79, 82, 76, 76, 74, 79, 70, 77, 80, 85, 80, 82, 76, 69, 61, 66, 67, 61, 66, 68, 70, 67, 79, 79, 80, 87, 84, 84, 87, 95, 88, 115, 114, 111, 113, 112, 98, 102, 102, 92, 88, 74, 59, 60, 59, 71, 74, 102, 116, 118},
{77, 81, 83, 78, 78, 75, 71, 79, 75, 81, 80, 91, 82, 82, 84, 92, 84, 87, 94, 90, 85, 78, 75, 64, 66, 70, 68, 73, 85, 87, 84, 89, 85, 73, 68, 77, 74, 75, 80, 87, 76, 81, 82, 78, 68, 77, 72, 83, 87, 90, 86, 86, 76, 76, 76, 84, 83, 83, 81, 76, 70, 68, 66, 67, 69, 64, 78, 75, 74, 73, 76, 65, 67, 71, 70, 70, 67, 69, 69, 71, 73, 82, 82, 83, 80, 75, 71, 80, 78, 77, 77, 72, 63, 54, 53, 53, 56, 56, 65, 66},
{88, 96, 94, 90, 93, 89, 83, 87, 87, 87, 87, 99, 99, 104, 107, 118, 107, 108, 109, 107, 100, 95, 88, 79, 85, 89, 92, 94, 102, 101, 93, 95, 96, 85, 84, 91, 90, 84, 86, 92, 84, 86, 92, 91, 78, 79, 78, 75, 76, 88, 92, 88, 89, 98, 93, 86, 86, 85, 70, 66, 64, 63, 66, 70, 70, 70, 71, 63, 61, 59, 59, 56, 65, 65, 65, 68, 68, 59, 57, 55, 49, 47, 49, 52, 54, 55, 60, 61, 57, 54, 53, 52, 53, 53, 53, 52, 50, 48, 46, 48},
{320, 334, 321, 291, 304, 307, 257, 264, 296, 284, 308, 377, 392, 397, 393, 378, 314, 320, 305, 318, 326, 321, 283, 260, 263, 270, 270, 285, 287, 288, 270, 273, 271, 289, 288, 297, 289, 281, 251, 277, 250, 262, 249, 261, 202, 192, 182, 188, 189, 231, 268, 263, 265, 290, 268, 233, 234, 231, 186, 176, 174, 165, 155, 154, 163, 160, 164, 166, 173, 158, 162, 171, 193, 189, 197, 194, 177, 160, 152, 161, 163, 172, 165, 166, 158, 146, 146, 139, 137, 128, 128, 133, 147, 143, 142, 145, 153, 146, 143, 142},
{219, 288, 283, 285, 322, 330, 285, 313, 337, 320, 346, 394, 395, 425, 414, 388, 340, 307, 249, 247, 295, 301, 310, 305, 296, 257, 228, 241, 234, 246, 254, 263, 250, 280, 279, 273, 274, 269, 218, 234, 230, 228, 229, 257, 227, 221, 238, 244, 237, 260, 268, 250, 235, 323, 322, 315, 337, 339, 251, 231, 239, 213, 210, 202, 207, 188, 196, 195, 201, 199, 225, 229, 237, 249, 244, 219, 253, 332, 321, 327, 324, 280, 173, 183, 183, 177, 176, 176, 164, 144, 139, 144, 139, 165, 213, 223, 239, 233, 223, 187},
{546, 508, 522, 467, 514, 510, 531, 572, 523, 551, 598, 589, 557, 657, 601, 580, 549, 586, 504, 499, 525, 602, 583, 582, 587, 544, 466, 433, 420, 398, 391, 410, 384, 426, 471, 464, 434, 450, 426, 406, 440, 432, 546, 525, 534, 518, 567, 458, 502, 499, 507, 495, 549, 528, 525, 550, 528, 465, 443, 488, 463, 480, 519, 509, 459, 462, 441, 439, 451, 488, 507, 538, 498, 517, 475, 431, 392, 447, 388, 381, 385, 374, 313, 316, 380, 361, 373, 406, 432, 418, 426, 420, 392, 386, 448, 439, 448, 445, 417, 304}}

// 20 Reading of the 8 sensors, 100 samples per sensor
{{621, 687, 748, 816, 944, 967, 983, 970, 906, 828, 850, 854, 874, 940, 932, 928, 892, 895, 862, 871, 866, 859, 828, 773, 689, 632, 634, 629, 620, 648, 654, 641, 611, 664, 672, 650, 622, 619, 602, 630, 610, 652, 713, 668, 624, 690, 733, 680, 728, 770, 738, 673, 701, 752, 805, 859, 868, 829, 763, 672, 616, 589, 619, 632, 653, 658, 740, 756, 732, 721, 679, 614, 613, 696, 701, 721, 704, 721, 649, 611, 606, 603, 506, 525, 525, 553, 626, 655, 613, 603, 561, 482, 451, 478, 474, 525, 494, 531, 598, 629},
{155, 153, 154, 204, 226, 225, 259, 269, 259, 261, 276, 252, 277, 273, 262, 235, 235, 224, 214, 217, 219, 208, 173, 159, 144, 118, 135, 136, 135, 132, 154, 141, 132, 133, 127, 105, 106, 111, 135, 149, 160, 159, 162, 139, 130, 117, 116, 120, 133, 130, 129, 123, 121, 120, 133, 142, 143, 135, 119, 103, 90, 88, 83, 94, 95, 89, 96, 124, 121, 124, 132, 130, 111, 118, 115, 103, 109, 119, 107, 109, 118, 116, 103, 106, 102, 99, 103, 107, 104, 103, 108, 98, 92, 94, 96, 90, 96, 95, 99, 98},
{137, 137, 135, 107, 101, 106, 109, 118, 137, 147, 149, 152, 147, 137, 126, 119, 115, 114, 91, 98, 89, 83, 81, 79, 81, 87, 94, 95, 94, 101, 96, 94, 90, 94, 78, 96, 93, 97, 90, 95, 76, 110, 110, 109, 111, 116, 86, 83, 88, 94, 89, 91, 90, 85, 91, 94, 94, 105, 106, 100, 99, 93, 82, 85, 77, 70, 75, 75, 74, 84, 87, 84, 88, 90, 75, 76, 78, 79, 74, 76, 75, 73, 71, 74, 74, 77, 80, 79, 71, 75, 68, 67, 62, 66, 58, 68, 76, 87, 86, 87},
{109, 114, 110, 88, 87, 94, 88, 87, 84, 87, 80, 88, 85, 103, 100, 105, 104, 110, 100, 110, 104, 99, 88, 82, 72, 77, 79, 82, 79, 89, 84, 80, 78, 92, 82, 87, 91, 99, 92, 91, 87, 87, 84, 82, 77, 83, 89, 81, 81, 81, 73, 63, 68, 65, 77, 80, 78, 78, 78, 69, 68, 69, 65, 65, 60, 58, 56, 66, 69, 71, 72, 74, 69, 74, 73, 75, 76, 71, 75, 73, 72, 71, 74, 67, 70, 76, 79, 81, 76, 76, 71, 68, 63, 61, 64, 61, 64, 70, 74, 66},
{119, 121, 117, 112, 114, 109, 99, 98, 89, 94, 91, 107, 107, 136, 129, 127, 120, 120, 95, 96, 98, 90, 90, 99, 106, 103, 105, 103, 93, 96, 101, 103, 100, 97, 86, 82, 78, 81, 79, 86, 84, 86, 86, 88, 84, 89, 93, 89, 95, 96, 91, 83, 84, 71, 64, 60, 55, 62, 71, 77, 87, 88, 81, 79, 78, 73, 73, 78, 81, 81, 77, 77, 72, 75, 74, 74, 78, 78, 73, 75, 87, 87, 88, 87, 89, 84, 81, 83, 75, 69, 63, 61, 62, 64, 67, 68, 74, 73, 76, 73},
{306, 307, 296, 303, 306, 281, 236, 203, 191, 200, 281, 298, 308, 333, 336, 271, 280, 279, 257, 244, 251, 228, 234, 271, 282, 273, 275, 254, 207, 215, 240, 241, 239, 238, 209, 169, 189, 200, 196, 215, 209, 216, 232, 226, 222, 242, 224, 208, 238, 233, 221, 228, 219, 189, 183, 182, 158, 161, 163, 162, 207, 218, 213, 217, 237, 208, 199, 225, 223, 212, 200, 204, 184, 191, 185, 186, 195, 191, 174, 189, 219, 245, 241, 240, 237, 220, 178, 188, 189, 173, 152, 161, 164, 160, 156, 174, 183, 175, 172, 181},
{286, 287, 308, 333, 352, 343, 322, 291, 247, 266, 367, 385, 405, 428, 412, 335, 323, 326, 307, 304, 326, 331, 310, 310, 318, 340, 324, 322, 324, 305, 298, 306, 303, 301, 294, 233, 226, 249, 247, 258, 252, 258, 290, 275, 281, 289, 276, 260, 278, 272, 262, 292, 293, 300, 310, 315, 307, 275, 290, 275, 282, 265, 259, 230, 252, 251, 241, 257, 254, 264, 266, 270, 270, 265, 244, 238, 240, 227, 233, 224, 214, 238, 236, 230, 234, 241, 203, 231, 220, 209, 194, 209, 177, 183, 189, 209, 198, 214, 210, 202},
{729, 792, 830, 945, 950, 938, 940, 937, 818, 921, 1007, 993, 1021, 1056, 984, 876, 827, 801, 778, 736, 824, 820, 791, 695, 727, 609, 602, 553, 605, 564, 597, 607, 616, 607, 647, 585, 601, 571, 575, 594, 592, 643, 711, 733, 684, 715, 727, 642, 609, 616, 574, 458, 507, 500, 527, 567, 582, 557, 572, 542, 570, 543, 562, 526, 520, 494, 561, 570, 572, 597, 547, 460, 507, 654, 695, 702, 755, 719, 673, 607, 674, 611, 590, 522, 583, 523, 572, 568, 552, 502, 468, 427, 427, 381, 397, 398, 394, 464, 504, 482}}

// 21 Reading of the 8 sensors, 100 samples per sensor 8センサ目がデータ数が足りない
{{611, 657, 673, 781, 787, 840, 866, 833, 828, 972, 969, 973, 955, 972, 839, 872, 782, 775, 661, 612, 612, 621, 658, 742, 724, 678, 703, 688, 609, 606, 574, 595, 543, 556, 566, 578, 502, 535, 567, 607, 589, 580, 633, 540, 539, 533, 560, 524, 530, 588, 602, 604, 595, 625, 583, 531, 557, 537, 512, 453, 472, 456, 470, 497, 534, 541, 505, 598, 573, 629, 617, 737, 652, 692, 606, 633, 505, 502, 486, 526, 568, 578, 597, 621, 615, 565, 549, 546, 582, 606, 659, 681, 744, 675, 684, 654, 703, 713, 723, 680},
{103, 107, 107, 123, 148, 175, 192, 190, 193, 192, 190, 176, 170, 179, 169, 157, 148, 153, 123, 108, 98, 105, 95, 99, 107, 107, 106, 107, 104, 99, 91, 80, 82, 92, 90, 93, 96, 94, 96, 99, 99, 99, 113, 96, 99, 101, 109, 98, 102, 121, 116, 112, 107, 109, 104, 109, 108, 111, 111, 91, 97, 109, 114, 116, 119, 115, 96, 88, 79, 72, 62, 66, 62, 76, 75, 79, 82, 86, 82, 86, 91, 93, 96, 100, 100, 113, 111, 112, 114, 115, 108, 109, 126, 115, 128, 131, 130, 117, 119, 102},
{74, 85, 100, 102, 103, 106, 99, 105, 109, 112, 115, 113, 94, 98, 94, 94, 88, 90, 75, 76, 67, 75, 75, 85, 91, 92, 98, 98, 93, 93, 101, 87, 94, 97, 90, 80, 92, 111, 119, 120, 125, 121, 102, 88, 94, 99, 97, 95, 99, 94, 88, 90, 89, 94, 96, 91, 88, 90, 80, 86, 95, 100, 102, 99, 86, 72, 59, 50, 50, 65, 64, 66, 64, 64, 51, 54, 51, 72, 73, 72, 75, 76, 63, 62, 60, 59, 64, 69, 73, 76, 83, 85, 77, 74, 74, 74, 65, 67, 67, 65},
{78, 70, 60, 62, 64, 79, 85, 96, 102, 104, 94, 93, 85, 77, 76, 86, 82, 79, 82, 82, 72, 72, 70, 71, 74, 73, 80, 81, 76, 70, 73, 64, 74, 77, 76, 68, 68, 71, 81, 84, 86, 88, 81, 70, 73, 73, 70, 68, 68, 66, 69, 68, 72, 73, 72, 71, 83, 80, 76, 79, 88, 81, 79, 84, 75, 66, 61, 68, 62, 72, 67, 77, 77, 86, 80, 80, 68, 70, 64, 68, 72, 70, 75, 70, 67, 76, 83, 82, 87, 88, 91, 88, 85, 82, 77, 76, 79, 75, 72, 75},
{94, 83, 72, 73, 76, 89, 101, 110, 120, 118, 109, 104, 96, 86, 87, 96, 87, 83, 82, 76, 65, 70, 69, 69, 81, 86, 83, 91, 89, 86, 87, 90, 86, 87, 80, 69, 70, 69, 82, 81, 80, 75, 72, 59, 64, 65, 66, 66, 59, 63, 76, 76, 73, 77, 80, 74, 83, 87, 87, 85, 80, 73, 68, 65, 61, 59, 54, 66, 64, 67, 66, 77, 67, 80, 77, 77, 73, 77, 71, 70, 73, 69, 67, 60, 71, 69, 74, 84, 89, 78, 84, 78, 72, 71, 73, 72, 82, 87, 88, 92},
{324, 267, 232, 202, 204, 209, 229, 280, 312, 333, 325, 336, 305, 293, 253, 254, 212, 208, 184, 178, 207, 230, 221, 212, 240, 225, 215, 260, 268, 277, 292, 303, 290, 302, 282, 252, 240, 220, 212, 202, 206, 193, 193, 193, 196, 180, 192, 186, 172, 188, 203, 198, 188, 189, 196, 203, 228, 237, 230, 227, 213, 185, 173, 178, 149, 150, 147, 168, 157, 185, 177, 215, 197, 214, 210, 210, 193, 207, 204, 183, 194, 186, 170, 164, 195, 204, 254, 267, 295, 275, 275, 221, 212, 200, 208, 203, 213, 225, 222, 241},
{283, 297, 285, 289, 330, 318, 314, 331, 336, 312, 329, 332, 308, 294, 260, 246, 229, 242, 261, 258, 236, 245, 230, 211, 211, 204, 190, 191, 222, 261, 273, 264, 272, 273, 251, 240, 240, 250, 227, 218, 216, 217, 247, 236, 235, 236, 269, 221, 227, 229, 229, 208, 197, 206, 199, 226, 229, 235, 228, 249, 222, 200, 198, 187, 135, 169, 166, 203, 208, 241, 217, 220, 184, 210, 201, 237, 258, 294, 298, 285, 270, 255, 236, 223, 267, 257, 265, 253, 271, 232, 252, 240, 252, 228, 243, 219, 230, 233, 247, 234},
{542, 553, 560, 522, 509, 515, 500, 481, 590, 542, 602, 635, 607, 514, 532, 465, 439, 439, 426, 415, 442, 407, 431, 444, 519, 536, 540, 550, 577, 540, 468, 498, 480, 459, 456, 515, 500, 529, 506, 549, 521, 509, 529, 540, 468, 575, 567, 600, 593, 590, 470, 480, 369, 408, 450, 432, 529, 506, 469, 494, 516, 507, 514, 579, 545, 556, 530, 536, 512, 491, 457, 405, 386, 388, 433, 482, 495, 506, 506, 506, 506, 506, 506, 506, 506, 506, 506, 506, 506, 506, 506, 506, 506, 506, 506, 506, 506, 506, 506, 506}}

// 22 Reading of the 8 sensors, 100 samples per sensor
{{504, 496, 575, 578, 540, 538, 602, 576, 603, 553, 542, 527, 472, 427, 427, 431, 405, 414, 555, 563, 609, 584, 572, 442, 436, 351, 338, 331, 288, 308, 366, 387, 414, 426, 417, 412, 419, 444, 453, 491, 473, 450, 451, 433, 388, 409, 422, 397, 478, 479, 520, 566, 571, 522, 511, 480, 411, 401, 394, 458, 424, 417, 451, 486, 437, 527, 536, 512, 563, 560, 469, 485, 489, 446, 482, 483, 566, 599, 588, 572, 589, 489, 444, 398, 460, 438, 432, 417, 421, 380, 403, 416, 419, 402, 424, 415, 426, 512, 509, 460},
{101, 111, 111, 120, 152, 146, 141, 150, 150, 122, 128, 119, 105, 105, 92, 87, 92, 101, 111, 121, 131, 130, 127, 109, 105, 104, 105, 96, 95, 90, 84, 77, 78, 86, 86, 75, 74, 82, 75, 73, 72, 71, 75, 83, 84, 92, 103, 95, 106, 109, 109, 107, 107, 96, 93, 92, 93, 91, 90, 91, 83, 76, 82, 82, 84, 92, 88, 81, 79, 81, 76, 80, 90, 86, 90, 91, 89, 92, 94, 90, 86, 83, 72, 67, 68, 68, 68, 75, 76, 78, 88, 95, 94, 92, 82, 78, 73, 73, 73, 74},
{154, 264, 267, 272, 380, 374, 318, 324, 321, 172, 176, 147, 128, 124, 121, 138, 148, 175, 188, 211, 210, 219, 198, 180, 169, 145, 129, 130, 128, 111, 108, 97, 80, 74, 70, 71, 89, 93, 109, 106, 102, 89, 94, 106, 106, 114, 114, 111, 103, 123, 121, 130, 127, 123, 114, 116, 103, 104, 93, 86, 76, 74, 74, 75, 85, 106, 110, 109, 106, 90, 66, 61, 64, 80, 84, 84, 87, 81, 69, 64, 67, 65, 63, 55, 55, 54, 64, 67, 66, 70, 68, 53, 59, 72, 72, 73, 78, 75, 67, 63},
{105, 118, 118, 103, 106, 104, 89, 88, 91, 77, 84, 81, 84, 81, 80, 80, 75, 79, 81, 88, 95, 98, 90, 95, 92, 78, 72, 75, 67, 67, 66, 64, 61, 60, 51, 53, 63, 62, 64, 64, 65, 57, 61, 63, 67, 68, 65, 65, 63, 60, 59, 62, 58, 60, 62, 68, 64, 64, 61, 73, 65, 69, 74, 75, 61, 65, 64, 63, 60, 58, 54, 50, 45, 48, 48, 46, 46, 46, 49, 57, 60, 63, 64, 58, 53, 50, 52, 53, 54, 50, 49, 50, 55, 56, 59, 61, 61, 62, 63, 65},
{95, 105, 110, 107, 102, 106, 101, 92, 92, 96, 94, 87, 86, 87, 84, 90, 88, 85, 82, 78, 80, 79, 82, 84, 88, 77, 70, 66, 61, 63, 65, 66, 65, 65, 62, 65, 67, 70, 73, 71, 68, 67, 65, 61, 61, 65, 66, 67, 70, 67, 61, 63, 64, 64, 69, 71, 70, 69, 69, 71, 71, 69, 72, 67, 59, 61, 69, 66, 67, 69, 74, 66, 67, 72, 76, 69, 71, 71, 67, 62, 64, 67, 69, 72, 78, 76, 71, 68, 61, 52, 55, 61, 60, 69, 68, 70, 71, 82, 82, 93},
{367, 342, 309, 319, 276, 280, 340, 312, 311, 320, 295, 249, 250, 244, 247, 296, 277, 281, 266, 270, 239, 232, 232, 235, 218, 202, 187, 161, 157, 153, 151, 149, 155, 168, 175, 173, 181, 190, 188, 195, 202, 193, 193, 189, 178, 158, 168, 169, 183, 173, 172, 179, 175, 149, 160, 166, 165, 157, 162, 197, 200, 192, 227, 219, 181, 185, 204, 178, 193, 205, 222, 200, 198, 209, 216, 200, 229, 235, 225, 207, 212, 196, 189, 186, 206, 188, 168, 157, 145, 130, 136, 152, 147, 209, 212, 248, 268, 310, 310, 330},
{331, 332, 301, 297, 285, 289, 358, 357, 374, 360, 331, 290, 281, 250, 249, 279, 263, 254, 275, 255, 250, 250, 258, 249, 257, 232, 195, 197, 191, 197, 189, 200, 188, 189, 171, 171, 165, 181, 189, 200, 208, 223, 219, 207, 202, 186, 194, 209, 221, 226, 262, 275, 267, 268, 262, 234, 197, 184, 170, 181, 174, 197, 207, 199, 182, 208, 191, 176, 183, 192, 180, 175, 178, 175, 180, 183, 210, 246, 274, 275, 275, 257, 236, 216, 209, 189, 185, 167, 150, 143, 159, 162, 160, 186, 197, 255, 252, 287, 282, 298},
{522, 505, 591, 588, 541, 451, 543, 536, 562, 569, 621, 583, 529, 529, 512, 448, 462, 434, 520, 509, 495, 494, 490, 355, 372, 378, 294, 325, 319, 384, 367, 376, 393, 399, 345, 416, 432, 403, 441, 421, 399, 393, 391, 348, 336, 354, 350, 443, 511, 512, 558, 577, 507, 476, 476, 377, 346, 424, 386, 417, 466, 461, 418, 492, 477, 464, 481, 455, 428, 432, 379, 381, 409, 398, 417, 439, 508, 526, 526, 549, 585, 530, 507, 486, 470, 410, 445, 420, 431, 436, 447, 438, 468, 490, 477, 555, 553, 606, 596, 612}}

// 23 Reading of the 8 sensors, 100 samples per sensor
{{502, 495, 551, 493, 537, 551, 572, 541, 605, 586, 586, 649, 681, 603, 633, 611, 523, 499, 496, 429, 472, 497, 530, 540, 643, 648, 617, 614, 610, 510, 471, 517, 469, 504, 477, 492, 465, 481, 528, 577, 569, 633, 605, 514, 534, 563, 486, 541, 539, 496, 463, 459, 434, 431, 407, 431, 408, 368, 387, 416, 377, 438, 490, 490, 471, 472, 429, 445, 450, 454, 512, 530, 499, 516, 519, 474, 550, 550, 555, 590, 586, 540, 562, 535, 546, 608, 585, 545, 603, 570, 503, 501, 569, 529, 523, 525, 611, 555, 602, 607},
{105, 107, 110, 100, 104, 99, 92, 84, 81, 82, 86, 92, 94, 91, 99, 96, 93, 102, 97, 84, 87, 90, 87, 92, 108, 109, 105, 104, 101, 95, 91, 93, 97, 97, 90, 94, 93, 81, 90, 92, 88, 92, 96, 83, 85, 89, 81, 90, 95, 90, 91, 94, 84, 77, 74, 67, 65, 67, 80, 87, 83, 91, 90, 82, 80, 88, 89, 88, 87, 84, 81, 81, 81, 93, 96, 94, 105, 103, 99, 103, 102, 100, 100, 96, 102, 108, 95, 102, 114, 103, 101, 98, 91, 80, 78, 76, 83, 84, 88, 88},
{66, 67, 69, 77, 76, 72, 71, 72, 61, 60, 63, 71, 74, 86, 86, 82, 75, 73, 58, 61, 63, 59, 69, 78, 86, 101, 107, 100, 93, 98, 83, 76, 75, 73, 61, 63, 66, 61, 65, 58, 55, 53, 64, 62, 67, 68, 65, 61, 60, 49, 47, 49, 49, 47, 51, 55, 56, 56, 58, 61, 58, 66, 64, 65, 60, 65, 59, 63, 58, 59, 53, 52, 49, 50, 54, 58, 63, 64, 63, 60, 56, 49, 44, 45, 53, 59, 66, 70, 71, 65, 64, 52, 56, 63, 63, 57, 58, 52, 41, 41},
{66, 65, 63, 64, 61, 50, 51, 60, 62, 61, 64, 63, 59, 62, 63, 66, 74, 74, 71, 76, 76, 66, 62, 68, 72, 100, 111, 114, 108, 114, 90, 80, 78, 79, 69, 85, 87, 90, 95, 89, 85, 81, 80, 77, 78, 69, 67, 67, 65, 64, 58, 60, 59, 57, 57, 65, 66, 63, 70, 71, 71, 71, 76, 78, 77, 75, 74, 78, 72, 72, 73, 86, 76, 75, 77, 79, 70, 69, 73, 70, 62, 59, 62, 63, 71, 74, 72, 72, 70, 68, 67, 65, 69, 78, 73, 70, 88, 85, 78, 81},
{86, 83, 84, 85, 79, 76, 78, 84, 83, 85, 86, 83, 75, 72, 69, 72, 74, 80, 79, 87, 93, 90, 83, 89, 85, 81, 89, 96, 91, 104, 97, 97, 91, 89, 74, 74, 71, 73, 73, 77, 80, 77, 74, 71, 64, 67, 65, 67, 69, 73, 67, 71, 74, 70, 70, 78, 81, 91, 95, 95, 93, 87, 75, 86, 83, 81, 85, 86, 71, 73, 73, 80, 78, 81, 81, 78, 79, 75, 74, 77, 77, 81, 85, 95, 98, 100, 97, 100, 96, 103, 110, 108, 132, 143, 137, 129, 130, 107, 97, 101},
{309, 291, 290, 292, 257, 256, 247, 251, 226, 234, 224, 221, 225, 243, 250, 260, 264, 268, 261, 263, 262, 262, 239, 256, 245, 272, 293, 324, 296, 333, 301, 297, 265, 260, 229, 231, 225, 229, 219, 224, 233, 236, 228, 226, 215, 209, 178, 185, 212, 225, 224, 243, 261, 243, 224, 227, 215, 234, 242, 246, 255, 252, 227, 261, 258, 279, 283, 268, 222, 217, 181, 181, 191, 201, 205, 203, 225, 211, 211, 212, 220, 266, 271, 308, 320, 327, 311, 323, 311, 372, 416, 455, 560, 602, 599, 562, 529, 436, 402, 386},
{375, 358, 363, 299, 295, 292, 282, 275, 252, 254, 252, 252, 273, 270, 286, 279, 294, 264, 268, 253, 254, 235, 237, 236, 248, 277, 282, 295, 294, 299, 257, 254, 229, 246, 216, 216, 213, 237, 251, 273, 307, 305, 296, 258, 240, 206, 206, 226, 222, 254, 251, 233, 200, 216, 217, 215, 212, 271, 274, 247, 277, 286, 232, 301, 302, 311, 313, 319, 242, 266, 233, 247, 243, 240, 253, 243, 248, 257, 286, 245, 274, 301, 301, 312, 331, 314, 310, 314, 316, 319, 335, 385, 441, 509, 576, 567, 518, 501, 444, 357},
{580, 596, 584, 569, 566, 535, 502, 496, 482, 455, 465, 545, 567, 565, 551, 615, 556, 569, 527, 517, 534, 494, 440, 525, 558, 530, 585, 588, 568, 534, 531, 504, 504, 479, 484, 436, 405, 376, 366, 372, 388, 507, 504, 503, 555, 565, 451, 467, 510, 464, 437, 535, 533, 501, 567, 552, 468, 489, 515, 424, 460, 446, 418, 439, 465, 443, 509, 501, 459, 495, 527, 482, 496, 460, 403, 395, 446, 532, 572, 588, 580, 597, 513, 484, 512, 514, 466, 493, 538, 519, 501, 492, 486, 472, 451, 457, 506, 492, 463, 497}}

// 24 Reading of the 8 sensors, 100 samples per sensor
{{345, 333, 340, 316, 278, 333, 340, 299, 326, 357, 345, 350, 365, 375, 347, 278, 278, 264, 215, 209, 230, 221, 194, 181, 213, 187, 220, 224, 266, 257, 307, 295, 314, 304, 301, 245, 241, 207, 199, 240, 261, 248, 267, 275, 249, 233, 248, 243, 214, 287, 280, 325, 313, 310, 245, 279, 216, 232, 247, 241, 222, 237, 238, 234, 242, 239, 215, 211, 240, 225, 210, 228, 222, 175, 200, 203, 203, 204, 205, 190, 182, 183, 183, 195, 180, 206, 182, 164, 171, 209, 195, 195, 209, 188, 149, 130, 131, 161, 169, 196},
{54, 53, 55, 58, 62, 62, 63, 60, 61, 61, 66, 68, 70, 71, 68, 61, 66, 62, 58, 58, 56, 52, 58, 56, 63, 69, 82, 81, 83, 82, 75, 60, 57, 57, 54, 61, 66, 66, 66, 67, 59, 51, 55, 55, 55, 61, 63, 66, 69, 71, 70, 76, 69, 66, 70, 68, 67, 72, 71, 63, 70, 65, 59, 61, 63, 56, 58, 59, 58, 52, 55, 50, 52, 50, 59, 55, 53, 54, 54, 46, 47, 53, 50, 48, 49, 54, 47, 51, 54, 54, 47, 50, 49, 46, 46, 45, 49, 46, 45, 46},
{88, 91, 92, 82, 61, 67, 65, 67, 68, 64, 52, 51, 47, 56, 70, 93, 93, 95, 94, 97, 75, 79, 88, 111, 103, 129, 163, 169, 152, 156, 136, 96, 82, 87, 87, 97, 123, 128, 130, 133, 132, 104, 103, 97, 99, 97, 95, 100, 134, 127, 136, 141, 135, 104, 113, 96, 96, 90, 93, 80, 79, 71, 68, 61, 59, 56, 53, 52, 64, 63, 60, 62, 63, 59, 58, 68, 67, 71, 61, 63, 66, 65, 62, 60, 59, 62, 62, 66, 65, 62, 45, 45, 40, 44, 46, 47, 49, 46, 41, 39},
{45, 45, 43, 43, 46, 51, 48, 49, 48, 45, 47, 50, 49, 58, 61, 61, 58, 60, 54, 52, 49, 54, 56, 60, 60, 61, 67, 62, 56, 54, 49, 39, 41, 41, 49, 49, 54, 60, 62, 61, 62, 56, 52, 48, 47, 50, 56, 54, 59, 54, 60, 55, 57, 54, 65, 58, 60, 61, 63, 54, 54, 52, 49, 45, 43, 43, 43, 43, 47, 54, 51, 52, 49, 51, 43, 43, 43, 44, 37, 39, 40, 41, 43, 45, 45, 49, 45, 44, 44, 43, 40, 45, 45, 46, 49, 52, 50, 49, 47, 44},
{61, 62, 59, 61, 62, 64, 62, 60, 53, 54, 59, 61, 58, 67, 66, 65, 61, 67, 58, 54, 60, 66, 67, 73, 74, 66, 69, 63, 59, 58, 55, 63, 64, 64, 66, 65, 55, 57, 57, 56, 57, 51, 56, 55, 60, 62, 68, 60, 62, 59, 59, 51, 52, 50, 44, 43, 47, 57, 62, 63, 66, 67, 60, 59, 61, 57, 56, 56, 55, 60, 57, 54, 51, 50, 41, 46, 51, 54, 52, 49, 52, 48, 47, 49, 55, 52, 48, 48, 47, 44, 42, 46, 46, 44, 46, 50, 54, 61, 60, 60},
{200, 191, 185, 192, 201, 204, 202, 190, 160, 177, 187, 198, 195, 216, 215, 203, 186, 200, 178, 159, 189, 191, 200, 223, 222, 209, 235, 218, 194, 193, 177, 198, 200, 203, 201, 202, 161, 160, 154, 182, 182, 163, 174, 176, 189, 193, 211, 197, 194, 175, 171, 161, 171, 174, 150, 151, 151, 163, 176, 177, 179, 173, 153, 149, 167, 163, 173, 177, 168, 157, 152, 131, 120, 122, 117, 138, 152, 163, 162, 155, 142, 123, 121, 118, 132, 134, 136, 140, 143, 129, 127, 126, 122, 122, 122, 118, 129, 153, 149, 149},
{245, 241, 242, 238, 241, 211, 204, 197, 181, 172, 194, 202, 197, 212, 211, 187, 179, 192, 166, 156, 208, 198, 193, 212, 223, 199, 239, 241, 227, 219, 199, 229, 230, 239, 263, 279, 268, 263, 253, 256, 242, 181, 180, 195, 181, 210, 213, 207, 194, 199, 192, 209, 222, 228, 228, 213, 214, 212, 220, 202, 203, 209, 194, 173, 185, 175, 195, 207, 210, 214, 220, 180, 165, 164, 153, 146, 158, 177, 182, 177, 184, 167, 171, 169, 167, 160, 174, 164, 156, 137, 139, 122, 121, 138, 135, 152, 167, 177, 175, 192},
{253, 238, 225, 194, 196, 212, 207, 248, 285, 295, 275, 279, 223, 157, 132, 133, 155, 147, 142, 148, 185, 177, 171, 191, 188, 158, 221, 242, 227, 239, 307, 328, 348, 370, 381, 330, 292, 266, 240, 232, 291, 269, 270, 298, 286, 224, 221, 202, 158, 318, 325, 329, 337, 387, 273, 265, 256, 249, 167, 181, 265, 270, 275, 276, 289, 295, 309, 316, 315, 298, 217, 197, 273, 267, 263, 261, 259, 180, 178, 169, 184, 164, 134, 175, 196, 177, 182, 182, 149, 119, 121, 140, 138, 127, 146, 152, 136, 161, 163, 149}}

// 25 Reading of the 8 sensors, 100 samples per sensor
{{660, 736, 780, 806, 797, 804, 742, 702, 695, 863, 854, 852, 838, 774, 630, 573, 564, 534, 537, 503, 534, 500, 566, 615, 712, 673, 725, 694, 801, 739, 787, 783, 808, 679, 671, 641, 683, 695, 717, 668, 689, 593, 578, 560, 580, 567, 624, 593, 619, 710, 692, 665, 656, 625, 605, 653, 650, 677, 641, 671, 644, 658, 671, 776, 700, 694, 662, 620, 485, 476, 528, 530, 543, 609, 574, 585, 613, 607, 587, 621, 626, 577, 590, 532, 497, 488, 509, 539, 571, 621, 551, 555, 525, 577, 520, 600, 614, 609, 538, 559},
{151, 146, 144, 141, 127, 130, 144, 147, 146, 173, 172, 174, 166, 162, 141, 139, 130, 147, 151, 142, 140, 136, 120, 124, 139, 137, 133, 135, 134, 117, 126, 141, 148, 145, 161, 155, 161, 149, 140, 121, 130, 106, 117, 119, 122, 110, 115, 114, 118, 126, 132, 124, 123, 119, 123, 130, 136, 150, 147, 144, 144, 143, 130, 143, 145, 133, 140, 144, 140, 126, 139, 132, 125, 129, 127, 122, 113, 132, 120, 124, 120, 131, 146, 145, 141, 156, 147, 125, 122, 127, 109, 119, 102, 106, 100, 102, 88, 86, 75, 82},
{119, 95, 110, 128, 130, 131, 167, 158, 144, 149, 152, 111, 104, 107, 86, 83, 72, 73, 84, 89, 84, 84, 85, 82, 76, 78, 84, 92, 81, 87, 85, 96, 119, 124, 129, 132, 134, 107, 104, 98, 103, 96, 100, 99, 101, 91, 85, 92, 89, 85, 87, 91, 91, 95, 90, 88, 99, 105, 105, 113, 114, 111, 103, 109, 104, 108, 98, 98, 97, 100, 117, 128, 132, 136, 134, 122, 110, 111, 97, 103, 96, 111, 122, 124, 119, 129, 113, 105, 102, 106, 100, 107, 88, 100, 97, 94, 89, 94, 78, 78},
{73, 76, 75, 79, 74, 77, 78, 74, 76, 80, 86, 89, 98, 95, 89, 86, 83, 76, 80, 78, 74, 68, 64, 72, 75, 76, 92, 122, 123, 127, 135, 129, 122, 117, 118, 114, 111, 92, 101, 105, 103, 108, 126, 115, 109, 108, 105, 84, 88, 97, 127, 143, 184, 194, 198, 182, 169, 143, 127, 135, 141, 160, 143, 160, 145, 151, 133, 136, 139, 143, 128, 136, 143, 128, 118, 136, 127, 121, 112, 117, 108, 106, 132, 137, 142, 138, 139, 135, 128, 127, 124, 125, 94, 102, 103, 112, 118, 117, 115, 111},
{102, 106, 105, 107, 99, 88, 82, 78, 75, 79, 88, 99, 112, 110, 110, 108, 105, 95, 99, 96, 88, 83, 79, 94, 100, 103, 124, 151, 149, 151, 152, 139, 114, 110, 108, 110, 104, 105, 100, 96, 96, 101, 99, 95, 98, 94, 91, 105, 106, 103, 102, 101, 81, 99, 98, 97, 97, 107, 90, 91, 94, 97, 90, 96, 94, 98, 108, 105, 103, 106, 97, 85, 91, 88, 83, 86, 83, 76, 71, 75, 74, 74, 76, 77, 76, 85, 86, 97, 103, 103, 98, 95, 81, 85, 83, 83, 87, 88, 76, 75},
{353, 375, 360, 340, 310, 305, 254, 259, 255, 291, 269, 290, 317, 313, 277, 295, 319, 304, 300, 316, 284, 268, 257, 353, 374, 407, 457, 555, 559, 552, 541, 507, 416, 386, 387, 433, 420, 404, 362, 373, 331, 340, 330, 324, 299, 271, 260, 300, 315, 310, 308, 292, 253, 294, 277, 287, 306, 296, 252, 258, 270, 259, 282, 284, 288, 276, 284, 264, 246, 293, 273, 261, 284, 279, 221, 215, 211, 169, 165, 164, 175, 193, 204, 199, 191, 213, 186, 206, 253, 275, 267, 277, 267, 258, 239, 255, 245, 253, 223, 233},
{349, 362, 376, 373, 326, 319, 299, 282, 271, 279, 278, 298, 371, 366, 375, 373, 393, 323, 320, 309, 296, 254, 235, 272, 278, 284, 335, 397, 417, 427, 427, 400, 366, 353, 378, 429, 425, 403, 402, 369, 339, 340, 354, 301, 283, 290, 292, 295, 308, 317, 281, 269, 261, 287, 272, 267, 283, 266, 235, 239, 269, 267, 291, 274, 266, 228, 222, 218, 231, 299, 301, 313, 316, 315, 282, 283, 262, 251, 242, 238, 236, 249, 269, 284, 251, 262, 248, 233, 212, 244, 237, 273, 272, 287, 277, 286, 254, 279, 278, 287},
{640, 683, 708, 728, 723, 726, 718, 663, 682, 850, 893, 931, 976, 971, 871, 841, 841, 746, 711, 688, 669, 628, 632, 704, 674, 631, 604, 645, 595, 654, 675, 634, 582, 587, 551, 559, 563, 607, 573, 535, 566, 681, 657, 625, 624, 620, 519, 530, 524, 546, 503, 470, 495, 507, 584, 598, 607, 608, 599, 524, 488, 523, 489, 474, 454, 472, 403, 362, 400, 354, 400, 420, 489, 466, 488, 519, 495, 436, 461, 449, 396, 440, 467, 458, 457, 432, 465, 507, 491, 545, 537, 566, 518, 571, 528, 552, 535, 544, 528, 562}}

// 26 Reading of the 8 sensors, 100 samples per sensor
{{640, 649, 654, 718, 728, 730, 718, 795, 675, 652, 617, 588, 451, 454, 497, 496, 492, 469, 481, 461, 451, 541, 561, 559, 517, 544, 513, 514, 509, 512, 470, 417, 354, 349, 357, 417, 452, 511, 509, 533, 487, 496, 501, 512, 496, 517, 494, 458, 449, 456, 509, 530, 541, 547, 509, 515, 520, 500, 562, 597, 520, 484, 498, 415, 434, 431, 446, 439, 442, 509, 518, 549, 520, 542, 455, 434, 371, 446, 440, 427, 443, 437, 398, 364, 369, 388, 378, 348, 362, 460, 472, 493, 498, 490, 399, 389, 361, 386, 378, 425},
{113, 115, 119, 109, 102, 107, 108, 133, 130, 123, 127, 124, 97, 95, 94, 94, 94, 81, 81, 101, 92, 91, 101, 108, 93, 94, 100, 98, 95, 92, 104, 96, 87, 86, 94, 79, 94, 104, 105, 112, 114, 111, 109, 112, 95, 95, 90, 86, 74, 84, 86, 83, 86, 89, 79, 89, 102, 99, 108, 113, 101, 88, 90, 78, 80, 78, 71, 69, 67, 85, 93, 97, 94, 99, 82, 71, 73, 76, 72, 71, 80, 78, 75, 74, 66, 65, 65, 63, 64, 87, 83, 84, 83, 82, 67, 67, 65, 70, 70, 71},
{60, 57, 53, 56, 54, 58, 59, 67, 64, 66, 66, 69, 63, 64, 59, 62, 60, 62, 62, 72, 69, 70, 66, 70, 60, 57, 56, 56, 55, 54, 65, 63, 61, 55, 59, 47, 49, 55, 56, 54, 54, 62, 60, 62, 64, 67, 61, 62, 59, 61, 60, 59, 56, 56, 52, 52, 54, 56, 64, 61, 61, 60, 56, 51, 55, 52, 49, 57, 54, 55, 65, 67, 67, 68, 66, 58, 58, 53, 56, 55, 62, 62, 58, 54, 52, 48, 47, 54, 59, 63, 58, 62, 57, 55, 50, 49, 46, 48, 46, 51},
{85, 85, 89, 86, 73, 74, 75, 73, 77, 82, 82, 90, 87, 85, 76, 78, 68, 81, 82, 102, 99, 98, 91, 97, 78, 78, 80, 78, 67, 78, 92, 94, 89, 92, 82, 71, 72, 84, 82, 84, 84, 88, 85, 95, 96, 93, 86, 81, 70, 89, 89, 90, 95, 93, 73, 73, 76, 73, 82, 82, 82, 80, 80, 81, 88, 88, 89, 92, 83, 72, 69, 71, 65, 66, 77, 83, 79, 80, 94, 89, 87, 89, 86, 70, 71, 76, 70, 76, 76, 75, 69, 75, 68, 73, 70, 69, 75, 75, 72, 75},
{100, 94, 89, 82, 64, 64, 61, 69, 68, 71, 75, 79, 80, 81, 79, 82, 79, 89, 96, 135, 136, 136, 131, 133, 97, 97, 98, 94, 85, 82, 97, 98, 94, 94, 92, 70, 67, 70, 69, 65, 66, 82, 86, 95, 100, 97, 89, 81, 76, 71, 72, 69, 75, 68, 65, 59, 59, 63, 65, 73, 75, 77, 74, 72, 70, 73, 67, 62, 63, 62, 61, 62, 60, 62, 61, 58, 59, 58, 56, 57, 65, 64, 69, 66, 60, 58, 58, 53, 54, 58, 51, 48, 46, 49, 49, 51, 51, 57, 55, 57},
{291, 277, 271, 265, 223, 210, 204, 221, 230, 211, 228, 223, 232, 231, 239, 229, 238, 248, 259, 427, 428, 420, 414, 420, 270, 285, 283, 269, 287, 266, 306, 297, 292, 276, 275, 206, 221, 219, 170, 182, 190, 261, 292, 314, 320, 326, 290, 268, 272, 257, 244, 225, 225, 184, 189, 178, 173, 188, 197, 216, 215, 216, 204, 194, 179, 192, 186, 170, 183, 195, 202, 203, 201, 217, 191, 174, 164, 162, 132, 136, 166, 167, 175, 169, 160, 139, 141, 133, 134, 139, 122, 114, 105, 104, 113, 119, 126, 147, 145, 135},
{306, 294, 267, 276, 283, 268, 264, 286, 308, 290, 301, 287, 256, 217, 210, 208, 201, 205, 218, 271, 269, 283, 284, 291, 257, 268, 249, 247, 273, 256, 289, 292, 289, 273, 269, 241, 239, 253, 233, 254, 231, 251, 306, 308, 314, 333, 320, 277, 272, 263, 231, 238, 234, 227, 213, 207, 194, 173, 181, 192, 209, 217, 222, 226, 226, 234, 222, 226, 220, 216, 218, 219, 200, 201, 186, 164, 164, 162, 170, 168, 171, 171, 178, 150, 165, 158, 145, 166, 181, 178, 176, 175, 152, 136, 139, 142, 142, 150, 160, 144},
{555, 514, 546, 570, 609, 589, 594, 659, 618, 515, 483, 470, 336, 351, 459, 502, 509, 502, 546, 510, 469, 499, 495, 476, 419, 469, 476, 456, 436, 418, 430, 416, 453, 491, 517, 488, 474, 484, 427, 427, 386, 390, 419, 437, 412, 482, 470, 420, 421, 431, 367, 408, 388, 371, 379, 414, 414, 399, 450, 483, 441, 434, 446, 409, 361, 361, 390, 391, 394, 441, 446, 383, 389, 388, 307, 294, 276, 390, 373, 368, 425, 445, 329, 319, 351, 328, 314, 318, 336, 431, 382, 372, 368, 354, 179, 257, 253, 263, 306, 318}}

// 27 Reading of the 8 sensors, 100 samples per sensor
{{653, 618, 623, 637, 614, 607, 571, 588, 574, 550, 595, 619, 583, 569, 625, 549, 539, 537, 527, 491, 541, 572, 587, 631, 592, 601, 614, 601, 608, 642, 609, 584, 655, 599, 609, 585, 567, 520, 544, 522, 543, 549, 524, 496, 510, 560, 563, 602, 597, 605, 587, 581, 546, 588, 531, 523, 486, 473, 410, 438, 442, 443, 491, 516, 584, 597, 617, 582, 586, 532, 460, 530, 523, 491, 454, 489, 492, 507, 511, 541, 508, 402, 381, 477, 545, 543, 574, 610, 537, 421, 514, 503, 467, 484, 511, 426, 441, 460, 480, 463},
{98, 91, 97, 107, 102, 114, 106, 103, 93, 95, 90, 90, 87, 95, 95, 95, 107, 107, 99, 94, 88, 81, 81, 85, 92, 95, 96, 100, 108, 107, 108, 114, 111, 103, 110, 106, 98, 106, 109, 96, 96, 95, 92, 87, 87, 88, 85, 79, 73, 77, 80, 83, 87, 91, 88, 99, 97, 97, 98, 103, 89, 91, 97, 98, 101, 108, 105, 98, 99, 90, 78, 84, 82, 84, 88, 91, 103, 105, 99, 96, 98, 80, 75, 76, 93, 87, 86, 91, 92, 75, 85, 85, 84, 84, 84, 80, 85, 90, 97, 98},
{71, 68, 76, 84, 85, 82, 76, 68, 61, 65, 66, 64, 64, 66, 68, 75, 79, 81, 79, 73, 64, 61, 69, 68, 67, 75, 77, 68, 68, 72, 72, 75, 76, 71, 71, 66, 62, 65, 72, 79, 76, 77, 74, 70, 53, 59, 79, 80, 79, 82, 89, 75, 75, 76, 78, 72, 71, 90, 98, 98, 96, 99, 90, 83, 95, 94, 107, 99, 107, 97, 94, 87, 116, 108, 107, 108, 95, 70, 70, 70, 81, 81, 94, 124, 126, 123, 124, 113, 86, 92, 89, 93, 87, 76, 64, 82, 86, 84, 86, 91},
{87, 91, 88, 84, 90, 95, 93, 89, 88, 84, 81, 77, 75, 73, 75, 75, 69, 79, 89, 86, 95, 96, 98, 95, 93, 86, 87, 81, 75, 73, 71, 76, 71, 72, 71, 76, 71, 72, 78, 88, 84, 81, 77, 68, 55, 51, 55, 54, 52, 56, 61, 57, 66, 74, 76, 77, 78, 78, 74, 78, 75, 75, 72, 81, 72, 77, 81, 79, 74, 77, 67, 67, 73, 69, 69, 80, 77, 83, 85, 85, 88, 94, 94, 93, 95, 87, 79, 73, 74, 75, 84, 90, 83, 84, 96, 89, 93, 96, 101, 87},
{64, 60, 52, 47, 55, 60, 64, 60, 61, 61, 58, 60, 64, 71, 67, 65, 59, 65, 64, 71, 81, 83, 81, 85, 81, 70, 68, 65, 53, 52, 56, 57, 54, 53, 57, 64, 66, 64, 65, 71, 64, 64, 69, 69, 58, 55, 57, 53, 51, 56, 59, 55, 58, 62, 62, 67, 64, 64, 62, 63, 65, 69, 69, 67, 62, 53, 52, 53, 53, 55, 58, 64, 64, 69, 71, 71, 69, 71, 67, 62, 67, 66, 67, 65, 71, 63, 57, 51, 51, 50, 54, 57, 54, 58, 59, 61, 64, 62, 60, 57},
{152, 139, 141, 136, 156, 152, 152, 149, 147, 131, 142, 148, 141, 155, 148, 130, 120, 142, 132, 142, 151, 154, 159, 160, 158, 151, 150, 124, 124, 121, 128, 120, 125, 122, 123, 162, 177, 173, 169, 188, 155, 157, 169, 168, 140, 139, 135, 132, 132, 131, 126, 110, 113, 123, 131, 136, 139, 129, 121, 130, 153, 151, 151, 149, 133, 100, 99, 88, 99, 97, 109, 115, 136, 145, 154, 147, 147, 131, 119, 134, 136, 136, 161, 158, 154, 155, 153, 149, 156, 151, 154, 153, 129, 141, 161, 155, 159, 159, 147, 115},
{244, 231, 212, 209, 218, 172, 175, 192, 181, 154, 176, 187, 170, 179, 186, 167, 162, 152, 169, 189, 205, 208, 226, 219, 211, 193, 187, 172, 175, 177, 195, 192, 191, 187, 185, 182, 188, 184, 165, 156, 150, 162, 187, 192, 186, 208, 225, 221, 225, 226, 205, 171, 174, 168, 162, 160, 153, 142, 145, 181, 183, 192, 178, 174, 149, 147, 148, 161, 158, 142, 150, 138, 134, 162, 175, 160, 195, 192, 190, 188, 189, 174, 179, 161, 164, 174, 150, 170, 177, 173, 169, 174, 139, 143, 142, 137, 147, 153, 183, 184},
{468, 449, 458, 331, 337, 326, 389, 408, 458, 458, 550, 531, 538, 553, 550, 501, 510, 457, 416, 427, 412, 388, 399, 441, 436, 456, 437, 461, 454, 437, 371, 486, 465, 391, 418, 452, 373, 374, 433, 416, 420, 407, 406, 348, 365, 379, 359, 397, 408, 406, 387, 378, 349, 347, 342, 318, 365, 381, 366, 445, 486, 464, 471, 504, 436, 401, 387, 370, 363, 357, 360, 363, 337, 333, 331, 350, 367, 468, 463, 480, 476, 471, 460, 447, 420, 391, 389, 309, 330, 324, 365, 374, 338, 364, 366, 318, 384, 432, 399, 399}}

// 28 Reading of the 8 sensors, 100 samples per sensor
{{653, 745, 753, 752, 761, 769, 690, 573, 587, 591, 615, 585, 658, 677, 664, 621, 687, 649, 689, 709, 790, 769, 798, 725, 685, 697, 650, 597, 599, 611, 481, 458, 564, 540, 508, 519, 521, 484, 561, 593, 606, 659, 628, 664, 680, 662, 631, 637, 545, 494, 518, 490, 455, 482, 574, 553, 555, 667, 690, 601, 598, 601, 522, 494, 532, 593, 582, 586, 580, 636, 576, 584, 529, 507, 413, 400, 393, 433, 422, 441, 451, 487, 475, 561, 548, 541, 560, 558, 462, 520, 559, 493, 556, 560, 538, 493, 527, 448, 486, 465},
{168, 187, 194, 171, 175, 175, 186, 174, 171, 172, 181, 153, 158, 154, 156, 145, 132, 118, 143, 147, 164, 177, 181, 167, 159, 153, 141, 139, 130, 126, 102, 100, 100, 94, 89, 98, 94, 85, 88, 101, 99, 108, 125, 132, 126, 121, 114, 93, 82, 83, 94, 90, 88, 94, 101, 91, 97, 126, 131, 127, 131, 127, 103, 91, 90, 88, 87, 101, 104, 104, 104, 109, 94, 91, 87, 90, 82, 87, 85, 90, 101, 115, 128, 133, 130, 121, 113, 92, 94, 101, 97, 100, 107, 101, 95, 98, 94, 84, 89, 82},
{139, 138, 141, 139, 148, 140, 170, 170, 157, 151, 154, 102, 100, 107, 106, 101, 99, 105, 123, 117, 118, 123, 125, 113, 116, 117, 115, 107, 91, 100, 101, 105, 106, 107, 100, 106, 99, 96, 96, 103, 98, 100, 100, 104, 89, 88, 93, 87, 79, 82, 78, 72, 76, 82, 76, 76, 76, 94, 92, 108, 111, 114, 98, 98, 85, 81, 74, 89, 89, 88, 87, 89, 77, 74, 73, 79, 73, 77, 75, 77, 78, 89, 88, 90, 86, 84, 72, 65, 68, 71, 62, 70, 71, 66, 68, 70, 65, 69, 73, 65},
{124, 129, 137, 144, 145, 134, 119, 115, 101, 104, 108, 108, 102, 97, 85, 79, 81, 88, 97, 96, 103, 107, 132, 132, 136, 135, 133, 102, 101, 101, 93, 85, 85, 84, 81, 82, 80, 83, 82, 90, 92, 97, 102, 103, 92, 96, 98, 88, 85, 87, 77, 79, 82, 79, 76, 89, 78, 82, 87, 90, 78, 89, 85, 80, 76, 81, 80, 83, 83, 86, 80, 82, 79, 79, 79, 85, 81, 84, 87, 87, 86, 81, 75, 74, 93, 90, 92, 103, 101, 78, 79, 82, 70, 72, 79, 81, 75, 83, 89, 83},
{182, 197, 209, 184, 190, 182, 158, 137, 123, 112, 110, 109, 101, 107, 99, 106, 117, 121, 120, 117, 106, 89, 115, 120, 129, 131, 133, 109, 104, 97, 99, 94, 89, 88, 87, 77, 78, 75, 71, 71, 78, 94, 97, 109, 106, 119, 129, 133, 126, 126, 114, 95, 91, 86, 84, 81, 72, 66, 66, 76, 68, 68, 72, 75, 66, 75, 82, 79, 80, 84, 79, 70, 76, 78, 73, 77, 81, 81, 84, 85, 93, 102, 99, 94, 117, 110, 109, 115, 114, 86, 83, 75, 70, 71, 81, 83, 84, 87, 93, 86},
{600, 614, 622, 492, 496, 501, 457, 445, 423, 383, 374, 348, 306, 331, 349, 326, 378, 385, 364, 338, 306, 220, 266, 284, 326, 373, 384, 354, 336, 322, 278, 258, 247, 271, 241, 224, 238, 239, 210, 210, 219, 270, 270, 279, 284, 314, 381, 457, 467, 467, 458, 371, 282, 274, 268, 241, 240, 219, 208, 221, 211, 197, 207, 205, 195, 230, 241, 263, 275, 290, 265, 277, 248, 241, 222, 222, 209, 236, 221, 235, 280, 318, 325, 337, 385, 361, 355, 347, 335, 261, 251, 206, 189, 207, 238, 246, 245, 244, 225, 198},
{539, 547, 546, 438, 468, 467, 437, 452, 432, 369, 359, 346, 307, 327, 335, 325, 337, 326, 304, 250, 258, 272, 275, 277, 266, 271, 235, 223, 224, 252, 216, 217, 239, 257, 234, 251, 269, 247, 257, 265, 271, 310, 312, 316, 315, 338, 336, 495, 491, 482, 472, 435, 248, 267, 280, 254, 271, 262, 253, 256, 281, 276, 298, 283, 273, 261, 263, 238, 232, 249, 219, 223, 227, 223, 216, 227, 221, 233, 247, 254, 247, 265, 264, 247, 277, 280, 259, 246, 241, 186, 188, 177, 199, 209, 245, 247, 241, 243, 250, 233},
{740, 730, 751, 712, 637, 595, 616, 551, 524, 506, 626, 566, 549, 515, 529, 373, 420, 422, 489, 516, 557, 523, 549, 522, 568, 542, 553, 540, 503, 479, 452, 453, 486, 490, 401, 413, 442, 446, 452, 532, 528, 496, 426, 490, 426, 422, 446, 547, 478, 503, 518, 501, 433, 482, 481, 514, 512, 504, 499, 463, 466, 470, 448, 466, 474, 470, 446, 446, 373, 390, 401, 426, 409, 436, 416, 396, 369, 396, 372, 383, 328, 404, 394, 414, 430, 502, 474, 493, 471, 452, 406, 388, 369, 402, 400, 367, 426, 424, 417, 421}}

// 29 Reading of the 8 sensors, 100 samples per sensor
{{730, 695, 684, 692, 592, 598, 621, 674, 745, 749, 820, 814, 755, 693, 794, 714, 645, 662, 635, 578, 620, 656, 624, 640, 553, 546, 546, 545, 592, 616, 568, 594, 607, 571, 612, 621, 636, 645, 646, 625, 618, 561, 494, 494, 485, 476, 438, 539, 545, 499, 521, 559, 508, 481, 562, 562, 555, 552, 569, 574, 556, 573, 536, 590, 545, 580, 536, 579, 520, 514, 501, 512, 527, 542, 574, 566, 634, 652, 694, 662, 649, 596, 514, 484, 508, 559, 606, 623, 634, 611, 563, 489, 516, 483, 491, 519, 557, 510, 452, 461},
{172, 155, 150, 155, 133, 133, 119, 119, 111, 115, 129, 137, 132, 125, 132, 120, 108, 113, 123, 121, 125, 122, 126, 115, 102, 114, 118, 113, 124, 147, 130, 134, 133, 125, 105, 111, 105, 101, 113, 106, 102, 105, 105, 94, 99, 95, 92, 107, 107, 101, 104, 118, 107, 105, 117, 115, 113, 122, 124, 119, 119, 108, 88, 89, 100, 104, 110, 110, 108, 113, 117, 116, 120, 125, 109, 102, 109, 107, 105, 101, 100, 84, 83, 84, 92, 100, 109, 116, 119, 122, 113, 107, 102, 100, 93, 93, 98, 94, 88, 85},
{143, 130, 134, 139, 121, 107, 99, 96, 94, 98, 100, 100, 95, 92, 85, 90, 97, 94, 95, 97, 99, 89, 111, 106, 114, 151, 163, 158, 167, 178, 152, 154, 147, 138, 140, 140, 120, 123, 120, 91, 76, 85, 88, 93, 105, 109, 106, 115, 128, 119, 135, 141, 134, 118, 118, 94, 88, 83, 87, 91, 94, 108, 106, 103, 103, 96, 75, 88, 106, 112, 115, 119, 129, 121, 117, 114, 118, 93, 81, 74, 78, 63, 61, 60, 64, 60, 64, 78, 91, 91, 92, 92, 101, 104, 103, 105, 107, 87, 70, 69},
{93, 92, 93, 96, 93, 86, 83, 78, 79, 76, 83, 86, 93, 92, 94, 89, 108, 101, 99, 94, 95, 69, 74, 77, 79, 82, 85, 87, 80, 77, 73, 74, 66, 65, 71, 65, 70, 73, 77, 76, 77, 68, 74, 70, 71, 85, 89, 83, 99, 93, 87, 91, 92, 74, 80, 72, 63, 62, 70, 82, 86, 91, 98, 96, 80, 75, 68, 60, 61, 68, 74, 74, 81, 79, 78, 75, 78, 70, 70, 66, 74, 75, 76, 76, 79, 73, 72, 75, 80, 76, 89, 84, 78, 73, 74, 56, 60, 61, 64, 68},
{131, 126, 125, 121, 106, 94, 91, 89, 89, 87, 92, 90, 101, 94, 97, 94, 96, 83, 89, 92, 94, 91, 91, 87, 82, 83, 89, 89, 96, 96, 96, 94, 100, 91, 92, 92, 99, 98, 95, 93, 87, 76, 82, 84, 89, 97, 103, 92, 102, 92, 103, 106, 108, 100, 100, 80, 79, 81, 83, 94, 96, 104, 102, 100, 95, 91, 75, 76, 75, 72, 75, 71, 70, 75, 73, 72, 77, 74, 75, 77, 80, 83, 88, 87, 94, 94, 96, 97, 104, 96, 107, 100, 98, 87, 85, 70, 79, 77, 76, 83},
{318, 337, 334, 320, 288, 269, 247, 250, 256, 256, 248, 256, 246, 234, 232, 228, 205, 191, 193, 203, 210, 215, 226, 230, 215, 239, 238, 270, 319, 330, 349, 362, 357, 309, 309, 317, 335, 326, 328, 318, 262, 236, 223, 238, 278, 280, 268, 267, 267, 214, 294, 306, 317, 306, 306, 239, 242, 235, 238, 252, 243, 232, 210, 218, 235, 224, 217, 229, 204, 184, 194, 197, 186, 211, 191, 195, 200, 198, 196, 202, 236, 246, 260, 261, 326, 317, 326, 341, 370, 321, 353, 341, 330, 298, 303, 268, 270, 264, 255, 260},
{295, 291, 283, 284, 244, 269, 261, 266, 277, 281, 239, 268, 264, 259, 246, 249, 226, 207, 221, 219, 224, 226, 245, 239, 236, 267, 295, 300, 352, 377, 371, 353, 362, 310, 288, 311, 316, 306, 306, 317, 281, 269, 246, 243, 256, 252, 269, 282, 303, 272, 302, 281, 301, 263, 272, 232, 278, 252, 255, 271, 280, 276, 287, 285, 263, 248, 213, 215, 221, 219, 240, 234, 214, 226, 217, 198, 203, 200, 182, 201, 227, 241, 258, 281, 387, 408, 425, 425, 450, 370, 343, 323, 319, 269, 268, 255, 254, 241, 225, 227},
{565, 559, 521, 540, 480, 490, 463, 475, 531, 488, 549, 585, 614, 558, 637, 552, 520, 485, 464, 369, 491, 541, 560, 568, 579, 575, 552, 546, 543, 532, 447, 417, 401, 421, 431, 446, 434, 493, 460, 475, 466, 466, 384, 472, 448, 450, 526, 547, 555, 533, 557, 528, 550, 479, 547, 514, 631, 606, 584, 552, 544, 438, 454, 479, 444, 457, 385, 348, 376, 424, 436, 476, 514, 505, 576, 556, 523, 524, 532, 431, 464, 443, 405, 408, 403, 371, 418, 453, 506, 503, 558, 548, 599, 540, 524, 494, 498, 390, 379, 432}}

// 30 Reading of the 8 sensors, 100 samples per sensor
{{525, 586, 567, 583, 610, 635, 579, 565, 470, 474, 468, 546, 557, 612, 583, 562, 487, 483, 434, 438, 494, 501, 541, 546, 627, 606, 712, 806, 829, 861, 862, 849, 750, 790, 727, 714, 654, 625, 593, 568, 566, 589, 586, 518, 486, 578, 591, 633, 676, 729, 673, 621, 577, 564, 500, 494, 494, 518, 458, 457, 517, 504, 543, 573, 587, 541, 621, 554, 544, 534, 582, 514, 540, 527, 523, 454, 503, 479, 477, 495, 479, 443, 448, 459, 425, 411, 372, 361, 394, 395, 441, 443, 492, 476, 504, 497, 494, 457, 418, 383},
{123, 128, 126, 129, 121, 137, 131, 127, 119, 119, 119, 129, 130, 132, 125, 106, 89, 88, 89, 95, 97, 107, 111, 105, 117, 130, 135, 141, 149, 164, 154, 147, 134, 129, 92, 90, 88, 89, 86, 87, 88, 95, 94, 112, 112, 122, 122, 131, 116, 123, 119, 117, 107, 108, 97, 90, 81, 92, 83, 82, 94, 95, 89, 99, 103, 100, 112, 112, 109, 109, 103, 87, 83, 82, 79, 76, 88, 88, 96, 100, 97, 89, 88, 82, 73, 72, 70, 71, 75, 75, 91, 94, 100, 90, 95, 88, 87, 83, 81, 84},
{110, 154, 159, 159, 171, 161, 130, 128, 145, 130, 132, 135, 128, 96, 90, 83, 58, 63, 70, 77, 79, 82, 79, 73, 79, 86, 83, 85, 94, 85, 82, 85, 94, 85, 86, 80, 74, 59, 84, 85, 81, 82, 85, 75, 75, 75, 73, 74, 62, 60, 93, 93, 98, 105, 106, 86, 91, 83, 89, 89, 86, 80, 84, 71, 75, 84, 113, 116, 118, 116, 111, 87, 80, 79, 76, 73, 80, 79, 80, 86, 97, 86, 88, 91, 91, 81, 96, 96, 90, 90, 92, 75, 90, 86, 86, 87, 89, 69, 69, 70},
{71, 79, 85, 78, 74, 73, 64, 59, 60, 64, 63, 71, 69, 67, 63, 59, 50, 48, 47, 50, 49, 48, 51, 54, 66, 67, 72, 69, 71, 59, 61, 54, 57, 53, 54, 53, 62, 59, 60, 61, 62, 53, 56, 54, 51, 48, 49, 47, 48, 45, 57, 55, 55, 71, 76, 66, 69, 68, 53, 49, 55, 53, 51, 49, 55, 61, 68, 70, 72, 67, 56, 46, 54, 53, 55, 58, 63, 57, 63, 72, 73, 71, 69, 67, 57, 63, 62, 63, 59, 58, 46, 47, 45, 42, 48, 46, 51, 51, 51, 52},
{67, 67, 65, 68, 63, 62, 67, 65, 65, 67, 66, 62, 61, 60, 61, 60, 62, 64, 64, 64, 72, 69, 69, 74, 81, 73, 80, 78, 83, 75, 76, 71, 71, 59, 61, 64, 69, 68, 66, 65, 63, 55, 55, 62, 65, 61, 62, 63, 56, 53, 54, 51, 49, 53, 52, 50, 54, 59, 62, 64, 68, 68, 64, 57, 55, 57, 65, 65, 66, 66, 63, 55, 59, 58, 56, 56, 64, 65, 66, 68, 75, 68, 64, 63, 67, 63, 60, 56, 61, 58, 52, 54, 58, 51, 52, 50, 60, 60, 60, 59},
{208, 191, 164, 173, 167, 167, 185, 187, 164, 163, 169, 139, 152, 153, 154, 155, 162, 143, 150, 153, 169, 160, 157, 156, 170, 144, 163, 158, 204, 190, 196, 196, 196, 157, 167, 173, 161, 177, 162, 153, 155, 151, 136, 174, 174, 159, 160, 167, 132, 132, 143, 142, 154, 157, 163, 166, 172, 173, 172, 168, 169, 161, 139, 128, 123, 111, 130, 131, 151, 153, 148, 142, 156, 141, 133, 139, 131, 118, 117, 120, 165, 171, 169, 169, 183, 141, 134, 127, 138, 119, 116, 114, 119, 116, 129, 122, 141, 141, 149, 143},
{214, 210, 188, 199, 195, 202, 256, 252, 237, 245, 253, 198, 184, 192, 198, 195, 217, 217, 221, 199, 198, 176, 169, 197, 243, 242, 247, 246, 289, 258, 252, 273, 272, 199, 204, 205, 169, 167, 171, 180, 165, 161, 183, 186, 174, 180, 189, 186, 171, 159, 166, 155, 191, 198, 206, 204, 203, 182, 193, 213, 215, 211, 195, 177, 134, 121, 128, 131, 135, 143, 149, 173, 176, 181, 181, 182, 171, 152, 140, 155, 230, 220, 223, 223, 209, 109, 110, 108, 134, 150, 150, 154, 157, 143, 149, 154, 156, 171, 164, 150},
{487, 519, 581, 510, 492, 467, 466, 421, 424, 439, 471, 463, 436, 400, 438, 447, 478, 488, 530, 492, 479, 475, 477, 435, 581, 580, 576, 620, 694, 656, 647, 652, 618, 594, 584, 608, 580, 542, 478, 414, 392, 403, 424, 439, 512, 549, 556, 587, 599, 516, 513, 498, 447, 458, 487, 445, 449, 455, 423, 395, 389, 387, 430, 405, 399, 407, 380, 333, 356, 342, 320, 359, 352, 391, 423, 422, 456, 450, 410, 430, 443, 359, 365, 386, 309, 325, 318, 298, 326, 323, 305, 372, 372, 320, 348, 344, 379, 409, 451, 434}}

// 31 Reading of the 8 sensors, 100 samples per sensor
{{451, 492, 468, 415, 438, 428, 377, 378, 324, 285, 285, 338, 384, 402, 416, 428, 370, 311, 323, 325, 317, 323, 337, 326, 367, 442, 494, 506, 537, 497, 501, 508, 512, 519, 525, 476, 491, 503, 473, 476, 490, 481, 489, 506, 585, 576, 539, 531, 559, 494, 489, 495, 481, 437, 410, 403, 383, 430, 416, 450, 509, 512, 468, 461, 455, 390, 374, 358, 375, 309, 336, 346, 332, 364, 497, 488, 610, 660, 649, 659, 730, 675, 672, 657, 578, 475, 433, 403, 437, 475, 511, 507, 496, 505, 449, 501, 508, 523, 502, 536},
{73, 79, 72, 81, 80, 80, 77, 82, 68, 68, 64, 67, 70, 72, 76, 81, 76, 71, 73, 69, 64, 71, 79, 75, 84, 99, 113, 110, 121, 118, 115, 110, 105, 97, 93, 84, 83, 92, 89, 99, 105, 109, 106, 108, 99, 93, 83, 91, 93, 94, 93, 90, 84, 78, 79, 77, 79, 78, 92, 93, 102, 100, 94, 90, 94, 86, 80, 83, 81, 74, 82, 82, 80, 79, 88, 80, 90, 99, 92, 91, 107, 105, 105, 108, 100, 84, 84, 91, 94, 103, 113, 112, 102, 100, 91, 106, 107, 109, 107, 108},
{55, 53, 45, 49, 56, 59, 59, 60, 58, 65, 66, 65, 65, 68, 71, 68, 67, 92, 91, 85, 91, 110, 105, 104, 108, 139, 147, 145, 149, 150, 118, 103, 92, 88, 78, 76, 73, 70, 66, 76, 79, 88, 90, 126, 125, 124, 115, 120, 90, 85, 83, 75, 71, 62, 61, 66, 75, 68, 67, 74, 74, 75, 85, 87, 81, 80, 69, 57, 61, 62, 58, 63, 66, 56, 61, 73, 71, 73, 75, 69, 63, 64, 57, 57, 56, 49, 53, 71, 102, 112, 117, 123, 114, 88, 80, 76, 62, 69, 70, 73},
{48, 54, 49, 54, 54, 57, 50, 52, 45, 56, 56, 56, 55, 58, 47, 50, 55, 55, 61, 61, 65, 63, 66, 62, 63, 59, 63, 60, 61, 72, 81, 80, 80, 78, 70, 61, 67, 74, 78, 78, 75, 90, 84, 83, 83, 84, 65, 73, 76, 73, 70, 70, 61, 53, 61, 68, 62, 65, 66, 59, 51, 54, 57, 56, 58, 60, 57, 50, 51, 48, 50, 63, 66, 67, 70, 73, 62, 61, 66, 66, 59, 64, 61, 67, 65, 63, 64, 69, 67, 68, 70, 70, 68, 59, 63, 60, 57, 61, 72, 71},
{55, 62, 66, 69, 70, 69, 59, 67, 65, 68, 71, 72, 62, 63, 62, 67, 70, 69, 70, 70, 64, 63, 67, 64, 59, 54, 54, 54, 55, 55, 64, 65, 66, 68, 71, 78, 77, 71, 66, 71, 60, 72, 74, 79, 73, 72, 66, 68, 66, 64, 69, 66, 65, 63, 68, 65, 58, 62, 68, 63, 60, 66, 68, 66, 72, 76, 75, 69, 65, 58, 56, 59, 57, 59, 67, 71, 67, 69, 74, 71, 63, 70, 70, 66, 64, 64, 62, 67, 70, 69, 79, 80, 77, 70, 75, 65, 60, 69, 80, 76},
{167, 169, 181, 176, 173, 174, 168, 182, 210, 208, 216, 216, 193, 159, 168, 187, 177, 180, 193, 196, 179, 177, 178, 168, 141, 123, 132, 121, 113, 116, 147, 155, 167, 194, 205, 230, 221, 210, 191, 193, 157, 167, 180, 195, 195, 178, 177, 175, 156, 143, 150, 152, 147, 151, 176, 172, 156, 164, 190, 182, 191, 198, 200, 209, 217, 213, 210, 200, 163, 133, 134, 146, 140, 152, 195, 207, 208, 214, 217, 185, 167, 162, 160, 141, 130, 132, 157, 161, 159, 157, 177, 171, 166, 169, 201, 212, 211, 226, 243, 220},
{169, 174, 175, 199, 197, 197, 190, 187, 162, 159, 153, 209, 206, 192, 208, 237, 203, 206, 219, 210, 210, 204, 213, 198, 190, 158, 165, 147, 152, 148, 191, 196, 206, 235, 236, 208, 194, 183, 164, 174, 163, 184, 204, 185, 180, 179, 166, 150, 151, 155, 163, 172, 175, 191, 208, 205, 186, 221, 216, 200, 236, 241, 219, 244, 248, 217, 230, 227, 195, 178, 191, 180, 161, 174, 220, 224, 227, 229, 240, 207, 190, 207, 224, 205, 203, 219, 199, 189, 188, 186, 168, 168, 165, 154, 184, 198, 233, 228, 256, 234},
{339, 351, 307, 375, 328, 347, 340, 386, 325, 324, 303, 388, 351, 353, 418, 424, 378, 392, 385, 309, 397, 360, 354, 364, 374, 361, 371, 354, 394, 397, 388, 447, 470, 464, 519, 525, 472, 471, 491, 425, 399, 460, 443, 407, 511, 495, 439, 458, 452, 344, 431, 430, 403, 378, 386, 292, 346, 384, 415, 431, 476, 436, 462, 471, 474, 425, 451, 441, 417, 371, 412, 408, 344, 389, 400, 358, 401, 440, 439, 513, 512, 549, 549, 520, 490, 500, 433, 515, 523, 566, 583, 572, 499, 530, 436, 440, 484, 474, 489, 519}}

// 32 Reading of the 8 sensors, 100 samples per sensor
{{572, 549, 570, 587, 505, 509, 530, 566, 577, 648, 665, 660, 608, 611, 482, 433, 447, 481, 458, 525, 553, 516, 505, 540, 479, 470, 487, 520, 485, 544, 572, 606, 555, 540, 490, 476, 461, 448, 473, 477, 455, 479, 517, 500, 547, 547, 471, 501, 494, 468, 456, 480, 518, 557, 583, 611, 680, 617, 615, 579, 563, 504, 498, 455, 474, 477, 442, 467, 465, 428, 442, 418, 442, 444, 496, 494, 529, 492, 501, 449, 473, 504, 597, 615, 663, 663, 644, 615, 612, 598, 542, 551, 514, 583, 554, 602, 587, 595, 547, 553},
{88, 97, 100, 102, 91, 89, 77, 76, 71, 94, 101, 109, 107, 111, 94, 91, 81, 86, 83, 93, 93, 104, 106, 110, 102, 104, 100, 99, 93, 97, 93, 98, 97, 95, 90, 91, 78, 74, 81, 84, 82, 89, 90, 84, 83, 79, 66, 75, 72, 70, 72, 77, 69, 80, 98, 100, 109, 113, 108, 104, 100, 91, 88, 91, 80, 89, 91, 91, 89, 86, 81, 78, 89, 84, 101, 100, 104, 93, 100, 85, 96, 93, 98, 105, 107, 106, 108, 109, 97, 100, 87, 90, 94, 117, 112, 114, 110, 100, 83, 91},
{49, 52, 53, 52, 47, 49, 50, 47, 48, 49, 48, 44, 48, 47, 43, 45, 55, 60, 67, 123, 131, 161, 162, 163, 133, 134, 92, 86, 83, 71, 53, 61, 62, 74, 75, 74, 65, 65, 50, 60, 63, 64, 63, 64, 56, 59, 55, 57, 61, 56, 54, 56, 53, 52, 57, 55, 54, 54, 50, 62, 62, 64, 68, 67, 55, 59, 57, 53, 53, 56, 54, 55, 57, 58, 56, 52, 54, 53, 50, 45, 51, 44, 48, 56, 59, 55, 60, 60, 53, 52, 49, 46, 40, 52, 50, 50, 50, 51, 43, 47},
{63, 59, 56, 57, 57, 51, 58, 61, 58, 60, 66, 58, 57, 59, 57, 50, 56, 55, 58, 69, 69, 71, 74, 78, 69, 72, 69, 66, 57, 56, 52, 50, 51, 55, 56, 56, 52, 53, 52, 52, 53, 59, 60, 56, 59, 62, 56, 57, 56, 50, 46, 47, 44, 48, 53, 56, 57, 58, 56, 55, 53, 52, 54, 56, 57, 57, 58, 56, 58, 53, 57, 58, 60, 54, 55, 54, 52, 52, 56, 55, 61, 58, 59, 59, 59, 51, 55, 49, 50, 51, 51, 54, 55, 59, 57, 56, 52, 54, 51, 58},
{73, 68, 69, 72, 69, 67, 67, 68, 60, 59, 61, 65, 64, 63, 68, 67, 67, 66, 70, 74, 71, 69, 69, 79, 69, 68, 69, 72, 56, 63, 67, 65, 60, 61, 59, 64, 62, 62, 61, 68, 59, 60, 61, 61, 59, 61, 61, 63, 65, 64, 63, 63, 61, 57, 56, 57, 57, 59, 60, 58, 56, 56, 55, 58, 59, 60, 58, 63, 60, 54, 55, 61, 64, 64, 71, 69, 71, 62, 67, 60, 65, 63, 72, 72, 75, 71, 70, 65, 61, 59, 63, 65, 61, 63, 63, 60, 54, 55, 55, 68},
{197, 194, 199, 190, 204, 203, 202, 190, 188, 163, 141, 142, 150, 149, 170, 176, 176, 175, 194, 193, 197, 199, 198, 200, 185, 182, 186, 201, 178, 193, 199, 188, 174, 178, 162, 164, 159, 163, 162, 158, 149, 151, 138, 142, 151, 139, 142, 160, 165, 164, 173, 171, 158, 150, 163, 152, 152, 177, 172, 149, 147, 158, 127, 131, 149, 164, 148, 168, 166, 146, 130, 142, 142, 135, 148, 147, 167, 146, 164, 161, 187, 182, 201, 195, 197, 177, 175, 163, 178, 185, 196, 192, 196, 190, 177, 173, 162, 153, 138, 165},
{196, 194, 291, 321, 366, 354, 385, 319, 298, 281, 300, 288, 289, 280, 277, 269, 273, 280, 326, 338, 352, 327, 325, 325, 292, 268, 272, 284, 228, 218, 239, 235, 209, 201, 202, 191, 183, 208, 223, 241, 240, 246, 217, 221, 203, 174, 171, 195, 221, 230, 256, 254, 269, 252, 262, 260, 285, 278, 263, 242, 227, 221, 203, 199, 198, 192, 163, 178, 185, 181, 170, 188, 176, 200, 208, 217, 203, 207, 205, 206, 249, 255, 278, 268, 260, 222, 211, 174, 184, 217, 221, 242, 254, 250, 242, 247, 227, 206, 202, 194},
