EMG data generated by the Myo Armband in response to different hand gestures used to control a prosthesis.
EMG data of the Myo Armband for the hand gesture that generates the cylindrical grasp in the prosthesis.

// 1 Reading of the 8 sensors, 100 samples per sensor
{{194, 182, 187, 202, 200, 221, 240, 229, 230, 236, 213, 198, 226, 259, 254, 256, 285, 274, 232, 217, 207, 187, 211, 205, 210, 228, 260, 255, 270, 269, 273, 219, 209, 191, 200, 205, 219, 236, 253, 259, 263, 281, 307, 294, 276, 251, 224, 164, 179, 207, 214, 233, 219, 212, 210, 254, 240, 248, 247, 262, 221, 226, 235, 242, 208, 211, 251, 241, 264, 274, 295, 255, 248, 217, 196, 149, 153, 151, 150, 162, 166, 196, 205, 214, 234, 240, 243, 240, 248, 246, 240, 211, 212, 203, 210, 231, 244, 257, 289, 264},
{419, 437, 383, 407, 440, 426, 432, 433, 427, 424, 407, 458, 468, 485, 455, 436, 381, 365, 317, 319, 295, 247, 322, 331, 365, 420, 445, 454, 451, 431, 411, 388, 354, 345, 356, 307, 298, 290, 335, 344, 385, 460, 439, 414, 389, 347, 288, 303, 310, 316, 349, 355, 356, 354, 342, 419, 424, 410, 414, 407, 329, 273, 303, 308, 311, 312, 337, 384, 389, 378, 358, 349, 252, 223, 222, 243, 230, 249, 255, 279, 279, 359, 359, 426, 455, 458, 412, 427, 383, 349, 333, 350, 342, 323, 346, 365, 347, 369, 392, 366},
{170, 180, 174, 202, 201, 210, 191, 197, 222, 240, 229, 250, 260, 217, 203, 222, 207, 181, 166, 158, 119, 102, 111, 121, 147, 156, 155, 161, 168, 178, 172, 174, 172, 170, 145, 142, 157, 144, 144, 149, 156, 158, 172, 164, 157, 178, 177, 192, 222, 241, 241, 246, 238, 226, 204, 225, 231, 228, 233, 240, 210, 198, 193, 171, 181, 178, 192, 220, 220, 221, 214, 196, 193, 191, 193, 242, 267, 262, 268, 263, 253, 226, 232, 252, 255, 229, 232, 233, 219, 213, 217, 220, 218, 212, 208, 193, 193, 181, 196, 208},
{552, 492, 477, 473, 382, 510, 523, 539, 506, 526, 413, 449, 452, 533, 548, 610, 635, 644, 668, 664, 598, 667, 728, 661, 696, 741, 632, 552, 564, 596, 620, 654, 683, 712, 665, 600, 612, 585, 609, 564, 561, 520, 546, 459, 522, 592, 611, 600, 636, 614, 711, 777, 846, 829, 833, 761, 684, 607, 626, 689, 715, 721, 684, 716, 646, 541, 587, 615, 561, 606, 692, 665, 680, 665, 638, 555, 552, 552, 569, 579, 580, 577, 585, 640, 698, 688, 729, 696, 645, 540, 523, 508, 566, 561, 565, 603, 558, 530, 594, 631},
{360, 343, 339, 354, 325, 372, 378, 378, 337, 340, 289, 298, 292, 342, 356, 372, 368, 392, 481, 479, 454, 498, 502, 382, 404, 441, 376, 368, 389, 399, 436, 470, 469, 487, 469, 419, 410, 417, 409, 390, 424, 427, 421, 433, 467, 527, 529, 535, 518, 501, 559, 595, 633, 620, 628, 528, 461, 407, 428, 464, 477, 475, 452, 457, 426, 357, 429, 436, 424, 403, 436, 391, 408, 404, 420, 397, 405, 412, 426, 425, 441, 417, 452, 469, 529, 531, 563, 537, 514, 448, 412, 417, 443, 463, 441, 449, 447, 396, 434, 450},
{110, 106, 117, 121, 119, 131, 130, 120, 118, 134, 113, 126, 123, 122, 112, 121, 113, 130, 180, 182, 182, 189, 189, 137, 129, 136, 122, 120, 132, 141, 149, 157, 153, 155, 151, 144, 141, 142, 135, 131, 140, 141, 140, 151, 163, 163, 174, 185, 181, 180, 220, 229, 223, 218, 216, 171, 139, 130, 134, 164, 170, 166, 165, 171, 150, 128, 147, 153, 142, 135, 150, 140, 138, 142, 141, 132, 129, 129, 129, 141, 151, 154, 170, 177, 186, 178, 197, 192, 193, 178, 174, 162, 161, 163, 155, 165, 156, 143, 163, 170},
{267, 284, 280, 281, 297, 258, 226, 239, 266, 293, 291, 314, 303, 285, 272, 307, 297, 305, 317, 296, 328, 344, 352, 355, 384, 345, 320, 345, 362, 364, 350, 359, 357, 360, 355, 356, 367, 320, 287, 259, 258, 275, 299, 311, 318, 359, 369, 375, 370, 380, 357, 322, 288, 290, 299, 285, 293, 353, 354, 351, 334, 317, 279, 291, 300, 322, 341, 357, 353, 322, 340, 379, 361, 353, 345, 336, 292, 276, 301, 330, 314, 301, 327, 319, 337, 365, 374, 378, 473, 548, 536, 563, 560, 500, 384, 403, 363, 362, 401, 446},
{271, 271, 265, 272, 294, 295, 289, 301, 377, 379, 372, 378, 404, 321, 357, 356, 394, 362, 378, 336, 327, 285, 286, 288, 314, 333, 354, 365, 359, 368, 352, 321, 435, 468, 507, 537, 551, 461, 475, 431, 413, 423, 484, 441, 432, 402, 425, 347, 396, 383, 398, 386, 401, 347, 339, 338, 301, 294, 290, 356, 336, 333, 339, 355, 326, 362, 417, 451, 474, 441, 434, 471, 438, 426, 452, 442, 346, 323, 363, 378, 385, 402, 419, 401, 413, 409, 450, 479, 503, 528, 543, 510, 470, 465, 403, 422, 404, 442, 453, 455}}

// 2 Reading of the 8 sensors, 100 samples per sensor
{{335, 292, 271, 289, 284, 239, 264, 289, 285, 288, 284, 292, 267, 275, 264, 275, 267, 264, 259, 266, 258, 337, 348, 335, 331, 382, 296, 327, 370, 372, 311, 315, 266, 198, 195, 201, 224, 231, 269, 272, 255, 235, 258, 233, 226, 248, 246, 222, 235, 249, 231, 251, 242, 226, 252, 292, 271, 274, 272, 243, 231, 251, 264, 255, 241, 214, 205, 191, 213, 218, 216, 242, 247, 229, 232, 244, 199, 189, 192, 214, 212, 225, 226, 249, 229, 246, 237, 238, 216, 245, 218, 280, 290, 291, 265, 284, 242, 234, 245, 251},
{333, 262, 260, 272, 306, 318, 329, 354, 351, 326, 322, 347, 345, 323, 354, 331, 295, 263, 294, 248, 248, 276, 279, 269, 272, 275, 263, 293, 332, 341, 343, 333, 318, 261, 253, 255, 334, 325, 356, 373, 348, 299, 319, 296, 276, 326, 298, 294, 302, 297, 264, 271, 254, 272, 297, 374, 371, 378, 364, 370, 309, 341, 353, 347, 333, 334, 294, 266, 291, 271, 241, 256, 264, 226, 225, 217, 208, 241, 257, 278, 324, 362, 355, 356, 370, 363, 321, 305, 315, 319, 295, 334, 353, 329, 286, 276, 289, 268, 275, 308},
{248, 233, 205, 226, 211, 181, 190, 202, 184, 196, 195, 205, 213, 265, 253, 261, 288, 322, 279, 308, 320, 305, 258, 259, 263, 238, 214, 261, 260, 214, 228, 229, 170, 216, 238, 252, 255, 269, 246, 240, 217, 226, 207, 232, 247, 242, 223, 251, 234, 227, 229, 278, 289, 275, 271, 281, 241, 207, 203, 186, 181, 173, 164, 168, 202, 188, 181, 196, 183, 149, 170, 174, 159, 158, 162, 212, 217, 215, 212, 205, 127, 114, 128, 139, 153, 201, 205, 196, 189, 182, 123, 147, 144, 147, 158, 175, 159, 169, 180, 171},
{542, 511, 525, 545, 543, 529, 674, 688, 627, 633, 685, 627, 602, 622, 617, 584, 460, 439, 398, 466, 478, 498, 535, 598, 602, 606, 622, 639, 601, 543, 523, 502, 596, 653, 696, 707, 700, 582, 496, 594, 622, 617, 741, 755, 636, 614, 661, 540, 565, 595, 613, 600, 663, 657, 634, 631, 591, 558, 520, 500, 443, 449, 377, 417, 484, 487, 531, 565, 600, 583, 563, 548, 631, 601, 617, 630, 661, 547, 543, 531, 579, 526, 536, 566, 567, 606, 650, 690, 742, 774, 731, 764, 722, 645, 594, 627, 576, 574, 549, 568},
{369, 383, 393, 417, 425, 415, 464, 463, 436, 444, 469, 454, 431, 414, 395, 398, 339, 333, 344, 367, 338, 336, 372, 384, 414, 423, 435, 427, 448, 399, 406, 407, 441, 446, 475, 463, 438, 395, 332, 394, 399, 403, 479, 492, 417, 412, 429, 342, 340, 341, 395, 397, 421, 425, 424, 404, 383, 374, 373, 363, 370, 385, 388, 384, 429, 417, 434, 414, 470, 446, 413, 390, 429, 397, 407, 399, 412, 353, 340, 359, 408, 417, 426, 443, 437, 443, 456, 478, 503, 494, 459, 475, 447, 411, 399, 439, 384, 390, 333, 348},
{140, 157, 151, 158, 157, 146, 156, 164, 152, 161, 167, 166, 154, 152, 142, 149, 125, 132, 137, 145, 142, 144, 160, 164, 171, 158, 160, 151, 155, 135, 158, 167, 161, 163, 179, 174, 159, 162, 153, 160, 149, 158, 163, 163, 139, 136, 125, 101, 102, 97, 126, 134, 142, 141, 149, 146, 146, 147, 142, 140, 161, 160, 179, 178, 177, 148, 153, 127, 150, 154, 151, 140, 149, 135, 127, 124, 131, 120, 129, 144, 145, 151, 155, 142, 132, 152, 147, 166, 167, 169, 149, 163, 142, 152, 151, 165, 150, 148, 135, 133},
{303, 305, 296, 316, 317, 294, 280, 279, 275, 320, 376, 401, 440, 461, 466, 441, 425, 390, 370, 355, 349, 371, 388, 391, 378, 442, 434, 431, 504, 518, 491, 498, 500, 440, 424, 403, 394, 410, 395, 396, 407, 419, 432, 533, 543, 531, 505, 468, 352, 373, 394, 423, 434, 445, 417, 432, 444, 456, 434, 468, 459, 456, 437, 422, 389, 370, 336, 326, 362, 412, 398, 436, 455, 432, 367, 373, 333, 324, 365, 359, 348, 339, 370, 322, 312, 305, 311, 326, 326, 339, 332, 360, 326, 384, 380, 425, 397, 381, 328, 336},
{544, 547, 527, 518, 525, 389, 335, 323, 358, 363, 383, 443, 457, 530, 514, 553, 543, 535, 447, 493, 437, 578, 656, 693, 696, 781, 674, 606, 644, 610, 518, 497, 522, 457, 474, 483, 569, 566, 598, 576, 577, 508, 511, 607, 625, 614, 618, 599, 449, 470, 489, 520, 526, 520, 477, 493, 454, 465, 463, 521, 542, 542, 522, 500, 479, 462, 482, 468, 480, 472, 396, 446, 501, 514, 504, 528, 500, 481, 462, 508, 503, 468, 476, 480, 419, 456, 432, 495, 493, 509, 459, 504, 462, 489, 458, 484, 444, 425, 433, 443}}

// 3 Reading of the 8 sensors, 100 samples per sensor
{{255, 239, 232, 266, 250, 257, 272, 289, 265, 263, 302, 296, 278, 288, 283, 215, 218, 234, 226, 248, 246, 244, 248, 284, 293, 331, 326, 329, 295, 285, 251, 263, 305, 321, 393, 386, 375, 348, 338, 244, 261, 274, 346, 354, 345, 340, 348, 279, 280, 295, 334, 324, 302, 332, 373, 323, 330, 318, 293, 270, 317, 336, 348, 339, 307, 289, 245, 275, 265, 275, 249, 280, 271, 276, 284, 292, 280, 272, 289, 275, 319, 322, 314, 314, 366, 329, 314, 313, 292, 221, 261, 311, 349, 374, 378, 347, 332, 290, 264, 290},
{361, 349, 353, 369, 314, 310, 284, 333, 315, 349, 391, 396, 381, 424, 452, 409, 453, 456, 436, 431, 453, 443, 435, 442, 396, 385, 398, 402, 392, 373, 363, 296, 332, 313, 397, 405, 437, 441, 465, 434, 439, 415, 400, 414, 387, 437, 508, 495, 495, 509, 496, 435, 481, 451, 520, 471, 455, 384, 413, 310, 348, 377, 395, 371, 393, 411, 383, 374, 380, 359, 310, 350, 344, 377, 395, 445, 435, 450, 425, 435, 394, 392, 378, 367, 409, 445, 443, 468, 475, 406, 343, 350, 337, 334, 398, 427, 425, 415, 426, 396},
{130, 120, 131, 138, 132, 142, 142, 137, 142, 145, 145, 157, 167, 179, 184, 179, 207, 204, 203, 197, 193, 192, 189, 187, 194, 213, 190, 190, 183, 206, 180, 170, 181, 186, 153, 153, 151, 123, 107, 129, 143, 152, 170, 167, 161, 151, 149, 177, 182, 191, 194, 203, 183, 179, 177, 178, 177, 177, 180, 161, 175, 171, 164, 163, 167, 152, 145, 141, 146, 156, 152, 147, 154, 157, 148, 147, 149, 132, 124, 118, 138, 135, 143, 142, 142, 143, 148, 150, 163, 173, 157, 148, 141, 130, 135, 138, 148, 148, 147, 143},
{557, 576, 588, 590, 554, 545, 526, 476, 459, 477, 555, 523, 575, 627, 640, 618, 709, 716, 704, 685, 661, 557, 455, 471, 509, 594, 637, 663, 612, 807, 842, 846, 919, 960, 860, 797, 833, 773, 752, 746, 747, 715, 867, 845, 804, 810, 798, 736, 750, 778, 785, 879, 805, 796, 891, 891, 884, 870, 940, 818, 823, 788, 824, 745, 744, 727, 758, 746, 789, 814, 796, 736, 799, 764, 734, 716, 643, 488, 501, 542, 628, 718, 749, 752, 707, 670, 693, 706, 764, 762, 737, 669, 657, 565, 788, 764, 760, 739, 774, 649},
{414, 414, 429, 412, 361, 367, 368, 373, 348, 363, 386, 379, 414, 462, 470, 488, 526, 526, 493, 487, 438, 377, 304, 323, 326, 387, 418, 438, 438, 535, 552, 550, 589, 629, 588, 580, 585, 572, 560, 552, 531, 538, 611, 592, 589, 602, 604, 609, 604, 614, 624, 688, 619, 607, 623, 620, 625, 612, 636, 630, 637, 604, 649, 650, 619, 620, 632, 605, 615, 645, 621, 588, 606, 581, 557, 528, 455, 379, 353, 338, 485, 552, 602, 604, 611, 516, 496, 509, 605, 583, 571, 549, 524, 437, 563, 563, 573, 525, 560, 474},
{127, 130, 145, 155, 150, 157, 162, 172, 166, 163, 149, 141, 128, 152, 157, 160, 207, 227, 209, 204, 200, 154, 109, 123, 136, 141, 157, 166, 177, 202, 217, 215, 227, 217, 196, 189, 196, 181, 187, 196, 199, 191, 226, 217, 211, 203, 204, 220, 238, 237, 247, 261, 210, 195, 207, 211, 208, 220, 221, 215, 218, 232, 229, 224, 225, 225, 207, 210, 216, 219, 198, 190, 202, 205, 207, 200, 182, 156, 147, 128, 221, 231, 247, 241, 247, 176, 169, 177, 205, 189, 187, 194, 179, 157, 190, 193, 191, 180, 184, 177},
{244, 236, 296, 351, 419, 460, 467, 474, 454, 403, 348, 364, 374, 390, 385, 367, 368, 378, 370, 383, 391, 435, 383, 383, 364, 412, 406, 415, 403, 416, 373, 314, 357, 383, 395, 420, 427, 407, 390, 381, 427, 433, 417, 417, 426, 344, 365, 409, 418, 408, 454, 489, 527, 530, 545, 539, 503, 419, 438, 427, 407, 386, 399, 386, 389, 407, 392, 374, 371, 371, 367, 408, 416, 413, 445, 430, 423, 487, 550, 519, 534, 527, 539, 498, 504, 497, 516, 487, 472, 451, 523, 499, 489, 474, 588, 572, 582, 556, 554, 474},
{332, 289, 362, 414, 555, 610, 671, 679, 654, 563, 534, 503, 518, 504, 498, 477, 454, 417, 473, 462, 463, 495, 494, 570, 609, 657, 697, 694, 610, 599, 605, 543, 585, 613, 691, 653, 656, 638, 599, 504, 579, 579, 679, 717, 707, 639, 685, 633, 580, 621, 634, 670, 644, 685, 674, 640, 588, 517, 529, 501, 587, 528, 540, 483, 555, 534, 541, 606, 626, 550, 518, 532, 539, 553, 594, 576, 555, 531, 675, 651, 713, 720, 758, 647, 739, 720, 735, 763, 718, 611, 643, 612, 569, 619, 722, 728, 751, 688, 661, 603}}

// 4 Reading of the 8 sensors, 100 samples per sensor
{{472, 468, 465, 406, 438, 421, 441, 416, 371, 317, 311, 344, 342, 359, 346, 348, 264, 270, 259, 283, 275, 300, 328, 327, 333, 323, 381, 369, 428, 429, 452, 405, 404, 360, 367, 348, 346, 319, 314, 293, 350, 339, 379, 410, 414, 355, 378, 355, 306, 349, 362, 357, 368, 362, 319, 316, 317, 437, 443, 456, 462, 462, 353, 336, 321, 304, 313, 327, 345, 339, 396, 398, 372, 383, 425, 368, 374, 380, 403, 369, 389, 356, 360, 338, 318, 290, 293, 269, 290, 336, 363, 358, 357, 348, 317, 284, 311, 316, 333, 352},
{532, 551, 550, 674, 723, 740, 778, 740, 626, 583, 579, 555, 578, 634, 611, 565, 504, 544, 509, 514, 528, 552, 617, 600, 586, 573, 672, 597, 590, 582, 602, 520, 494, 497, 612, 590, 541, 580, 584, 463, 549, 630, 618, 656, 649, 589, 526, 508, 449, 506, 553, 560, 598, 605, 591, 576, 556, 552, 625, 631, 612, 629, 572, 477, 421, 394, 373, 412, 438, 438, 457, 478, 450, 438, 547, 554, 560, 584, 665, 595, 588, 594, 634, 541, 516, 511, 496, 434, 455, 438, 460, 429, 427, 423, 455, 452, 466, 448, 454, 475},
{331, 307, 331, 350, 338, 256, 256, 220, 158, 166, 174, 203, 217, 230, 226, 217, 192, 200, 197, 200, 189, 174, 172, 168, 184, 222, 246, 245, 254, 241, 238, 219, 209, 190, 202, 182, 187, 180, 191, 183, 183, 184, 198, 185, 180, 181, 170, 147, 158, 183, 169, 166, 184, 188, 168, 200, 214, 211, 209, 209, 195, 180, 188, 182, 186, 180, 202, 183, 177, 165, 152, 131, 145, 152, 178, 202, 209, 203, 206, 196, 194, 177, 179, 163, 145, 120, 144, 168, 178, 188, 184, 191, 173, 173, 174, 172, 147, 151, 173, 173},
{627, 678, 745, 709, 684, 631, 649, 501, 550, 559, 561, 464, 480, 503, 520, 538, 589, 651, 585, 617, 628, 611, 547, 537, 568, 542, 574, 617, 676, 638, 646, 598, 603, 604, 654, 738, 734, 684, 658, 631, 598, 639, 655, 666, 715, 687, 704, 696, 715, 683, 646, 697, 700, 734, 697, 718, 645, 701, 621, 702, 741, 798, 758, 864, 821, 814, 780, 752, 681, 635, 724, 672, 709, 717, 788, 703, 749, 729, 709, 652, 664, 663, 718, 673, 691, 648, 707, 721, 746, 716, 705, 652, 590, 687, 722, 732, 701, 706, 634, 637},
{354, 425, 481, 462, 476, 482, 457, 387, 447, 433, 445, 411, 414, 418, 420, 471, 496, 541, 513, 521, 479, 465, 432, 423, 433, 402, 417, 409, 468, 488, 518, 523, 515, 477, 479, 554, 539, 522, 526, 497, 448, 478, 492, 463, 526, 496, 510, 505, 551, 505, 485, 474, 499, 565, 565, 560, 581, 592, 481, 552, 578, 565, 554, 617, 594, 609, 610, 573, 538, 484, 573, 533, 572, 587, 628, 534, 567, 535, 512, 450, 439, 413, 466, 432, 438, 448, 493, 508, 548, 548, 550, 559, 515, 555, 552, 539, 499, 494, 441, 460},
{163, 177, 182, 166, 184, 184, 167, 146, 152, 132, 131, 140, 151, 150, 151, 170, 169, 177, 172, 174, 163, 159, 146, 146, 140, 128, 127, 124, 156, 171, 175, 178, 177, 164, 166, 188, 189, 187, 178, 168, 161, 160, 161, 162, 179, 174, 182, 182, 198, 183, 171, 172, 172, 183, 187, 204, 195, 202, 175, 178, 160, 180, 170, 169, 187, 199, 199, 200, 201, 188, 218, 200, 199, 208, 217, 188, 210, 206, 204, 183, 166, 132, 139, 125, 122, 133, 154, 166, 176, 191, 190, 187, 171, 181, 165, 156, 155, 159, 155, 173},
{330, 327, 325, 283, 295, 277, 291, 281, 290, 368, 419, 445, 453, 455, 406, 375, 369, 387, 395, 386, 387, 365, 349, 351, 359, 338, 336, 323, 341, 339, 397, 444, 465, 450, 471, 443, 420, 401, 409, 363, 365, 353, 371, 367, 383, 395, 386, 365, 396, 398, 378, 359, 410, 380, 358, 395, 405, 393, 388, 459, 420, 504, 493, 529, 479, 495, 421, 480, 431, 482, 484, 533, 468, 471, 445, 468, 420, 433, 452, 429, 381, 378, 364, 365, 367, 411, 392, 386, 369, 413, 391, 439, 426, 438, 469, 453, 404, 402, 383, 305},
{614, 578, 504, 312, 319, 342, 340, 352, 407, 389, 389, 435, 519, 543, 552, 520, 490, 414, 374, 372, 458, 518, 535, 525, 561, 534, 505, 479, 479, 435, 430, 407, 437, 463, 512, 519, 517, 502, 487, 460, 426, 407, 475, 483, 452, 466, 595, 550, 567, 633, 668, 585, 619, 645, 585, 538, 519, 547, 476, 526, 555, 610, 514, 560, 511, 506, 499, 553, 540, 553, 544, 597, 561, 545, 628, 644, 544, 537, 559, 501, 491, 493, 519, 503, 495, 478, 490, 467, 529, 659, 664, 678, 682, 607, 529, 509, 460, 464, 576, 530}}

// 5 Reading of the 8 sensors, 100 samples per sensor
{{285, 283, 261, 262, 277, 291, 292, 275, 290, 280, 282, 283, 275, 266, 234, 211, 241, 258, 261, 275, 268, 280, 265, 248, 261, 277, 254, 247, 284, 271, 291, 274, 296, 269, 265, 229, 229, 265, 248, 238, 262, 263, 235, 241, 253, 235, 258, 242, 231, 223, 205, 174, 164, 204, 205, 232, 227, 230, 205, 215, 226, 223, 219, 217, 222, 195, 199, 208, 210, 183, 183, 222, 210, 223, 224, 218, 176, 171, 155, 168, 161, 187, 190, 197, 196, 196, 170, 177, 160, 164, 171, 179, 187, 196, 179, 216, 212, 223, 239, 245},
{355, 324, 351, 362, 438, 471, 472, 513, 516, 508, 497, 504, 437, 402, 340, 325, 342, 345, 402, 408, 421, 428, 412, 356, 373, 348, 368, 376, 402, 380, 383, 314, 301, 304, 300, 306, 324, 370, 358, 360, 340, 319, 281, 244, 254, 286, 313, 298, 292, 287, 261, 272, 289, 291, 288, 309, 284, 291, 299, 291, 264, 280, 275, 256, 270, 293, 280, 300, 311, 294, 271, 263, 231, 250, 256, 234, 230, 236, 226, 227, 230, 257, 229, 263, 280, 294, 277, 289, 239, 238, 244, 249, 270, 292, 316, 310, 299, 271, 279, 231},
{199, 182, 150, 127, 133, 133, 144, 168, 193, 188, 191, 181, 156, 126, 123, 123, 131, 129, 125, 159, 160, 157, 170, 165, 159, 169, 175, 163, 162, 177, 176, 177, 192, 200, 169, 152, 140, 129, 117, 110, 136, 150, 146, 151, 166, 157, 153, 148, 154, 140, 166, 162, 161, 153, 149, 112, 108, 119, 114, 118, 122, 145, 150, 158, 171, 169, 150, 139, 156, 141, 136, 156, 148, 120, 112, 128, 109, 112, 119, 125, 111, 118, 117, 132, 145, 146, 149, 167, 166, 161, 164, 174, 170, 153, 152, 171, 163, 150, 157, 147},
{627, 623, 617, 582, 685, 564, 535, 573, 733, 654, 664, 709, 692, 526, 527, 537, 541, 533, 521, 522, 562, 502, 622, 619, 618, 638, 657, 644, 653, 644, 622, 596, 481, 530, 530, 486, 507, 524, 463, 445, 611, 608, 591, 599, 596, 418, 448, 474, 441, 417, 408, 359, 308, 319, 368, 422, 398, 436, 459, 512, 613, 641, 657, 673, 607, 447, 466, 427, 545, 620, 702, 748, 768, 664, 588, 570, 506, 488, 535, 621, 605, 657, 637, 606, 541, 478, 343, 421, 423, 421, 502, 540, 527, 516, 566, 566, 548, 523, 521, 481},
{468, 467, 460, 411, 462, 425, 400, 438, 540, 512, 509, 520, 510, 434, 416, 425, 435, 408, 385, 396, 424, 410, 465, 448, 477, 496, 492, 492, 521, 522, 477, 461, 440, 416, 386, 414, 449, 422, 437, 398, 457, 422, 431, 411, 429, 329, 350, 360, 345, 326, 316, 309, 275, 299, 301, 336, 315, 315, 309, 338, 452, 465, 481, 516, 507, 384, 386, 361, 386, 404, 439, 478, 490, 424, 395, 420, 367, 358, 386, 418, 384, 464, 463, 464, 468, 435, 343, 367, 338, 289, 351, 364, 365, 367, 417, 436, 433, 408, 401, 378},
{161, 165, 168, 153, 153, 152, 143, 143, 152, 148, 148, 162, 178, 173, 169, 161, 156, 130, 123, 134, 140, 130, 148, 143, 151, 163, 170, 169, 176, 176, 163, 154, 162, 154, 135, 147, 151, 129, 124, 121, 116, 111, 116, 124, 126, 123, 130, 145, 142, 142, 133, 126, 110, 119, 119, 124, 124, 122, 110, 127, 149, 151, 152, 170, 166, 154, 152, 150, 146, 148, 148, 164, 166, 152, 138, 149, 126, 118, 123, 131, 99, 136, 147, 149, 154, 157, 126, 118, 119, 104, 128, 133, 145, 135, 150, 156, 164, 150, 152, 145},
{291, 280, 287, 311, 307, 282, 317, 312, 295, 314, 299, 277, 321, 338, 332, 343, 360, 369, 347, 365, 360, 334, 294, 337, 294, 301, 315, 348, 357, 388, 404, 404, 377, 315, 283, 276, 291, 274, 311, 313, 340, 326, 365, 334, 346, 318, 312, 303, 311, 297, 273, 262, 244, 256, 273, 273, 291, 285, 269, 247, 255, 231, 245, 304, 310, 314, 348, 353, 303, 305, 299, 275, 244, 246, 222, 256, 263, 255, 252, 276, 246, 296, 311, 321, 315, 339, 294, 283, 291, 298, 263, 268, 298, 285, 295, 365, 372, 342, 339, 330},
{356, 335, 347, 335, 326, 293, 344, 327, 371, 383, 378, 383, 396, 411, 393, 381, 346, 411, 358, 447, 439, 475, 434, 472, 394, 414, 415, 402, 403, 410, 417, 409, 433, 378, 360, 346, 293, 286, 293, 316, 377, 371, 403, 384, 371, 295, 304, 297, 350, 351, 343, 336, 289, 252, 270, 290, 288, 284, 270, 273, 299, 314, 338, 379, 394, 369, 373, 338, 298, 276, 295, 308, 314, 336, 319, 342, 307, 314, 301, 330, 276, 299, 334, 349, 322, 340, 363, 331, 312, 328, 325, 297, 330, 336, 317, 387, 393, 348, 368, 374}}

// 6 Reading of the 8 sensors, 100 samples per sensor
{{424, 404, 416, 398, 371, 326, 316, 304, 296, 310, 361, 360, 344, 359, 366, 369, 402, 405, 397, 392, 373, 330, 335, 368, 372, 346, 368, 372, 358, 359, 398, 405, 425, 411, 388, 365, 350, 388, 367, 406, 437, 467, 434, 444, 411, 367, 317, 289, 299, 288, 295, 282, 263, 234, 241, 261, 261, 305, 309, 317, 291, 296, 261, 267, 294, 307, 298, 372, 377, 360, 340, 347, 267, 299, 317, 319, 327, 337, 292, 253, 254, 221, 219, 213, 207, 219, 226, 206, 226, 265, 249, 267, 271, 248, 219, 245, 214, 256, 352, 392},
{617, 607, 609, 566, 601, 534, 479, 540, 527, 520, 560, 545, 504, 525, 499, 479, 535, 516, 507, 492, 495, 479, 516, 525, 560, 552, 591, 576, 562, 517, 556, 588, 609, 672, 677, 645, 605, 628, 532, 566, 588, 592, 623, 652, 614, 585, 559, 443, 449, 481, 522, 542, 538, 513, 486, 464, 462, 480, 458, 454, 481, 458, 428, 461, 488, 462, 400, 509, 504, 491, 479, 525, 463, 463, 493, 464, 463, 516, 492, 443, 470, 424, 338, 361, 329, 313, 328, 381, 401, 478, 483, 538, 496, 473, 472, 466, 403, 393, 435, 421},
{222, 229, 250, 263, 264, 267, 279, 262, 274, 266, 248, 248, 247, 245, 249, 278, 283, 278, 274, 265, 235, 222, 283, 276, 291, 299, 326, 289, 300, 298, 297, 301, 299, 284, 284, 269, 227, 230, 289, 284, 315, 310, 316, 281, 279, 267, 352, 363, 399, 448, 464, 416, 443, 429, 406, 373, 374, 308, 266, 219, 221, 185, 194, 226, 255, 266, 290, 298, 281, 278, 265, 250, 269, 261, 235, 233, 280, 284, 295, 306, 302, 251, 271, 265, 301, 301, 301, 255, 251, 202, 206, 246, 283, 291, 281, 303, 315, 266, 266, 267},
{537, 559, 576, 617, 668, 716, 759, 732, 684, 675, 669, 632, 646, 631, 619, 571, 612, 733, 788, 811, 837, 810, 792, 729, 685, 691, 700, 579, 571, 660, 767, 777, 796, 836, 767, 689, 659, 673, 652, 666, 683, 673, 595, 597, 620, 571, 578, 582, 572, 512, 522, 522, 520, 494, 502, 513, 571, 567, 573, 568, 507, 473, 539, 535, 621, 647, 594, 604, 607, 533, 543, 576, 602, 629, 602, 629, 617, 595, 642, 694, 629, 679, 636, 554, 528, 520, 464, 435, 573, 555, 560, 562, 582, 476, 503, 540, 538, 561, 583, 582},
{458, 489, 497, 490, 506, 526, 550, 540, 559, 541, 524, 496, 527, 476, 479, 462, 488, 577, 621, 625, 674, 650, 607, 556, 562, 517, 520, 448, 437, 563, 657, 664, 642, 669, 543, 446, 473, 502, 481, 491, 529, 511, 477, 500, 513, 484, 452, 445, 437, 414, 403, 425, 436, 422, 397, 397, 389, 396, 403, 418, 417, 432, 465, 448, 496, 463, 434, 441, 448, 415, 420, 435, 432, 453, 433, 455, 460, 484, 486, 518, 516, 524, 468, 442, 419, 386, 342, 347, 380, 370, 363, 387, 365, 322, 316, 384, 366, 442, 476, 480},
{185, 188, 198, 209, 209, 216, 221, 222, 210, 198, 187, 173, 167, 169, 187, 177, 197, 238, 256, 253, 276, 264, 242, 225, 228, 203, 210, 191, 184, 215, 256, 259, 255, 260, 219, 188, 186, 192, 179, 178, 168, 149, 136, 152, 162, 176, 173, 164, 164, 155, 130, 134, 140, 144, 152, 156, 160, 164, 165, 164, 167, 159, 182, 180, 221, 221, 222, 214, 213, 178, 167, 170, 171, 192, 180, 183, 180, 180, 167, 179, 183, 186, 172, 153, 159, 151, 142, 144, 152, 144, 146, 163, 158, 147, 138, 169, 163, 189, 198, 198},
{359, 368, 388, 410, 419, 433, 452, 420, 466, 476, 520, 490, 516, 452, 466, 395, 435, 418, 508, 500, 514, 486, 495, 423, 410, 400, 495, 515, 514, 565, 619, 629, 657, 676, 636, 584, 516, 467, 433, 427, 484, 520, 508, 559, 563, 510, 433, 436, 325, 309, 332, 345, 377, 418, 441, 454, 479, 500, 492, 547, 513, 502, 483, 470, 402, 405, 421, 426, 429, 479, 492, 452, 445, 498, 449, 443, 475, 451, 395, 395, 471, 445, 430, 406, 420, 359, 407, 402, 422, 430, 437, 404, 413, 410, 400, 407, 446, 459, 481, 472},
{587, 610, 657, 642, 569, 567, 712, 672, 652, 664, 738, 587, 622, 641, 726, 665, 681, 635, 669, 589, 580, 558, 623, 584, 573, 543, 556, 532, 511, 580, 614, 654, 698, 692, 649, 661, 649, 596, 572, 556, 544, 509, 522, 635, 627, 607, 551, 524, 401, 399, 451, 487, 557, 741, 772, 789, 778, 759, 569, 621, 596, 591, 640, 652, 579, 564, 576, 519, 568, 601, 589, 623, 570, 628, 627, 612, 557, 575, 434, 423, 464, 482, 482, 489, 445, 455, 491, 463, 455, 462, 417, 382, 381, 380, 435, 537, 608, 664, 705, 712}}

// 7 Reading of the 8 sensors, 100 samples per sensor
{{265, 276, 247, 236, 244, 281, 272, 300, 300, 318, 322, 355, 330, 343, 350, 318, 266, 259, 224, 169, 174, 200, 195, 212, 232, 237, 220, 222, 226, 198, 194, 193, 210, 199, 219, 205, 203, 181, 180, 157, 159, 190, 199, 225, 238, 241, 226, 229, 200, 223, 233, 234, 245, 254, 252, 241, 229, 206, 223, 196, 225, 228, 239, 221, 248, 234, 236, 222, 231, 190, 176, 173, 194, 166, 170, 192, 206, 215, 230, 251, 273, 278, 258, 272, 254, 215, 223, 228, 207, 228, 235, 213, 210, 224, 206, 191, 220, 222, 207, 203},
{486, 511, 521, 553, 568, 551, 553, 581, 513, 543, 611, 583, 512, 522, 497, 407, 387, 408, 390, 332, 291, 305, 250, 241, 274, 301, 352, 379, 393, 383, 400, 371, 355, 337, 339, 307, 270, 301, 297, 297, 293, 348, 332, 350, 345, 337, 286, 275, 263, 257, 266, 269, 272, 256, 294, 312, 321, 296, 335, 301, 284, 286, 307, 268, 275, 258, 248, 214, 288, 292, 293, 318, 389, 345, 341, 333, 321, 238, 250, 260, 306, 305, 303, 301, 288, 293, 292, 309, 293, 314, 288, 262, 258, 304, 325, 329, 356, 350, 326, 272},
{163, 163, 162, 175, 179, 177, 174, 172, 160, 153, 145, 160, 159, 147, 166, 192, 181, 197, 218, 206, 186, 189, 169, 166, 165, 143, 135, 155, 130, 129, 140, 145, 120, 117, 137, 129, 126, 132, 129, 119, 142, 149, 145, 153, 155, 136, 130, 141, 150, 143, 155, 155, 141, 133, 127, 128, 122, 127, 130, 135, 116, 120, 116, 119, 104, 113, 110, 121, 116, 129, 126, 133, 121, 117, 104, 109, 115, 117, 111, 123, 119, 122, 130, 133, 136, 137, 123, 113, 123, 107, 105, 110, 117, 104, 106, 102, 104, 99, 104, 107},
{719, 718, 673, 678, 761, 704, 676, 634, 573, 475, 464, 581, 587, 597, 583, 558, 514, 567, 601, 604, 648, 606, 524, 524, 571, 512, 502, 562, 561, 564, 614, 705, 685, 653, 658, 623, 535, 524, 531, 484, 573, 576, 559, 551, 563, 461, 446, 452, 468, 485, 528, 511, 504, 549, 518, 510, 542, 599, 569, 578, 538, 535, 496, 491, 467, 521, 482, 459, 488, 519, 477, 607, 588, 545, 524, 517, 446, 437, 436, 475, 476, 506, 593, 597, 568, 560, 521, 481, 492, 491, 532, 524, 490, 467, 492, 453, 442, 463, 489, 474},
{503, 497, 518, 526, 578, 564, 558, 545, 508, 462, 430, 494, 432, 425, 406, 377, 337, 384, 382, 387, 441, 427, 394, 418, 468, 432, 424, 469, 467, 443, 453, 501, 471, 454, 447, 439, 391, 393, 396, 381, 394, 379, 340, 354, 343, 309, 293, 294, 295, 328, 364, 360, 368, 381, 349, 317, 336, 381, 416, 428, 454, 462, 460, 402, 395, 440, 431, 406, 408, 432, 349, 450, 435, 439, 399, 437, 357, 346, 336, 422, 388, 413, 441, 431, 370, 379, 334, 304, 321, 323, 325, 359, 362, 356, 362, 345, 288, 312, 302, 306},
{179, 173, 174, 179, 194, 188, 188, 179, 158, 151, 141, 153, 144, 140, 131, 135, 133, 136, 140, 143, 154, 147, 145, 140, 152, 136, 135, 157, 161, 148, 151, 180, 173, 172, 178, 174, 153, 151, 165, 161, 171, 174, 163, 154, 158, 149, 140, 145, 147, 136, 156, 152, 143, 143, 141, 127, 127, 132, 134, 132, 140, 149, 161, 148, 152, 159, 147, 136, 140, 139, 110, 138, 132, 136, 133, 151, 137, 136, 128, 144, 129, 131, 133, 132, 116, 114, 101, 106, 111, 111, 110, 114, 113, 105, 115, 125, 123, 129, 132, 135},
{268, 267, 310, 310, 387, 399, 403, 379, 368, 304, 303, 311, 329, 321, 321, 340, 348, 334, 343, 337, 302, 330, 329, 332, 350, 372, 365, 349, 344, 336, 325, 312, 344, 353, 346, 358, 329, 339, 399, 414, 403, 435, 409, 356, 343, 339, 309, 323, 292, 317, 352, 342, 318, 361, 349, 297, 298, 325, 283, 270, 279, 287, 280, 319, 329, 346, 357, 344, 311, 308, 302, 289, 318, 323, 359, 357, 369, 367, 398, 365, 376, 362, 338, 307, 291, 262, 241, 243, 276, 267, 261, 279, 282, 256, 279, 321, 312, 317, 320, 314},
{358, 326, 315, 320, 312, 322, 334, 340, 336, 336, 298, 322, 312, 322, 318, 310, 303, 305, 286, 289, 298, 355, 380, 385, 403, 411, 336, 297, 349, 335, 320, 331, 345, 289, 303, 282, 264, 280, 297, 296, 329, 402, 394, 382, 431, 434, 389, 397, 406, 354, 403, 406, 391, 396, 388, 322, 299, 343, 329, 320, 314, 327, 269, 262, 267, 283, 297, 307, 340, 354, 354, 333, 344, 331, 357, 359, 366, 369, 361, 332, 328, 303, 298, 326, 320, 308, 332, 320, 365, 357, 354, 335, 329, 229, 241, 245, 278, 310, 314, 319}}

// 8 Reading of the 8 sensors, 100 samples per sensor
{{382, 403, 380, 375, 384, 388, 390, 387, 363, 352, 297, 279, 275, 262, 303, 351, 374, 362, 358, 353, 292, 260, 284, 291, 274, 363, 358, 386, 437, 448, 389, 390, 339, 284, 260, 285, 287, 296, 283, 261, 238, 272, 272, 298, 310, 314, 294, 297, 283, 276, 253, 271, 315, 298, 315, 328, 305, 278, 291, 269, 258, 262, 263, 263, 262, 283, 278, 258, 289, 292, 266, 265, 253, 215, 187, 189, 180, 171, 169, 188, 208, 219, 235, 225, 255, 259, 245, 240, 242, 232, 245, 265, 261, 269, 259, 232, 203, 198, 187, 191},
{582, 614, 580, 561, 576, 617, 602, 618, 562, 555, 519, 532, 510, 496, 538, 544, 554, 568, 563, 518, 470, 431, 413, 415, 399, 438, 424, 536, 583, 582, 617, 618, 506, 547, 579, 512, 487, 521, 456, 469, 483, 550, 539, 523, 477, 518, 465, 453, 450, 463, 391, 388, 433, 424, 411, 436, 465, 490, 490, 476, 452, 412, 388, 383, 370, 384, 412, 400, 417, 416, 406, 381, 308, 284, 256, 236, 222, 242, 263, 309, 388, 394, 386, 382, 361, 271, 257, 264, 225, 269, 362, 425, 407, 434, 419, 373, 289, 299, 283, 299},
{185, 220, 221, 225, 229, 242, 250, 242, 277, 293, 288, 255, 247, 218, 201, 190, 206, 205, 161, 144, 155, 149, 167, 173, 191, 225, 209, 201, 216, 206, 172, 186, 173, 173, 214, 219, 219, 231, 222, 197, 182, 189, 185, 200, 188, 196, 184, 183, 165, 168, 152, 142, 132, 120, 102, 106, 119, 133, 138, 137, 131, 135, 126, 142, 152, 148, 145, 168, 159, 172, 193, 196, 180, 192, 181, 169, 162, 165, 157, 171, 180, 184, 179, 169, 166, 150, 158, 164, 163, 141, 156, 159, 144, 163, 159, 150, 139, 149, 157, 176},
{550, 675, 671, 725, 752, 719, 702, 749, 797, 837, 814, 799, 812, 708, 683, 688, 721, 685, 711, 694, 788, 753, 782, 782, 771, 712, 660, 611, 580, 620, 599, 658, 788, 774, 747, 728, 744, 629, 617, 588, 573, 532, 547, 560, 643, 637, 645, 605, 685, 673, 684, 692, 694, 627, 593, 672, 606, 600, 584, 567, 444, 527, 584, 559, 582, 589, 558, 493, 515, 515, 523, 539, 565, 633, 627, 646, 594, 584, 558, 673, 653, 667, 696, 664, 546, 523, 546, 560, 565, 569, 590, 627, 557, 599, 573, 559, 506, 595, 656, 742},
{390, 473, 491, 537, 561, 529, 493, 513, 541, 585, 592, 592, 589, 554, 522, 494, 523, 514, 519, 501, 588, 551, 569, 547, 538, 489, 478, 439, 458, 446, 452, 504, 593, 586, 578, 533, 531, 440, 417, 402, 417, 409, 398, 411, 501, 486, 454, 451, 506, 462, 464, 475, 459, 396, 361, 438, 402, 410, 415, 409, 339, 381, 421, 388, 454, 425, 431, 401, 413, 369, 427, 436, 470, 499, 503, 473, 425, 380, 362, 417, 419, 424, 450, 444, 421, 405, 416, 415, 430, 399, 431, 461, 433, 447, 433, 428, 415, 455, 477, 519},
{152, 170, 171, 179, 185, 165, 149, 156, 185, 207, 218, 218, 213, 192, 190, 175, 186, 201, 201, 183, 210, 200, 190, 172, 176, 157, 164, 162, 172, 165, 168, 172, 182, 196, 194, 178, 186, 173, 152, 151, 159, 167, 164, 179, 188, 184, 162, 168, 185, 179, 184, 184, 175, 134, 140, 139, 134, 132, 138, 127, 133, 156, 166, 157, 164, 148, 132, 126, 132, 130, 159, 167, 190, 197, 206, 186, 166, 140, 132, 136, 146, 148, 155, 164, 162, 153, 160, 163, 169, 160, 164, 164, 149, 137, 134, 144, 175, 182, 186, 192},
{380, 381, 443, 413, 412, 411, 403, 352, 350, 357, 337, 322, 296, 292, 313, 311, 338, 376, 382, 357, 365, 351, 363, 374, 377, 354, 352, 322, 317, 322, 320, 337, 315, 333, 339, 346, 335, 358, 365, 362, 350, 381, 347, 359, 346, 371, 364, 387, 403, 424, 429, 418, 420, 391, 449, 434, 435, 438, 394, 299, 290, 313, 315, 339, 340, 354, 323, 322, 347, 396, 379, 381, 362, 355, 323, 322, 335, 335, 341, 317, 313, 318, 328, 345, 382, 436, 419, 444, 414, 465, 427, 433, 404, 419, 322, 344, 324, 337, 320, 315},
{628, 623, 593, 565, 519, 377, 338, 338, 331, 424, 469, 465, 472, 475, 402, 392, 382, 373, 386, 369, 360, 361, 416, 411, 425, 452, 462, 449, 477, 482, 427, 440, 392, 403, 382, 405, 389, 438, 393, 451, 433, 455, 406, 427, 384, 409, 418, 451, 504, 515, 499, 494, 472, 392, 364, 391, 346, 313, 317, 354, 342, 410, 471, 501, 480, 485, 432, 403, 403, 480, 456, 485, 454, 435, 400, 392, 402, 441, 453, 402, 405, 372, 328, 302, 381, 398, 428, 469, 473, 505, 518, 522, 495, 529, 441, 458, 435, 436, 377, 366}}

// 9 Reading of the 8 sensors, 100 samples per sensor
{{501, 490, 471, 462, 477, 533, 529, 497, 467, 416, 306, 319, 329, 363, 357, 393, 388, 415, 436, 435, 419, 401, 364, 289, 309, 332, 361, 379, 416, 416, 396, 376, 331, 301, 274, 259, 250, 282, 290, 287, 312, 310, 286, 238, 271, 266, 253, 309, 341, 361, 347, 352, 323, 298, 259, 271, 279, 259, 261, 271, 263, 252, 282, 287, 290, 279, 276, 246, 259, 260, 253, 262, 289, 307, 299, 304, 342, 337, 297, 292, 313, 310, 308, 306, 304, 284, 235, 212, 222, 209, 202, 198, 212, 208, 234, 258, 286, 284, 280, 271},
{679, 678, 712, 793, 812, 766, 791, 848, 756, 705, 714, 705, 584, 548, 553, 569, 584, 589, 576, 590, 534, 494, 452, 448, 390, 448, 414, 448, 500, 498, 475, 509, 503, 429, 419, 387, 330, 336, 379, 390, 437, 457, 442, 416, 436, 404, 446, 448, 463, 558, 566, 541, 544, 531, 418, 425, 425, 438, 445, 419, 373, 330, 286, 269, 291, 310, 306, 288, 351, 327, 304, 338, 373, 325, 362, 424, 448, 431, 428, 430, 385, 361, 354, 404, 381, 365, 360, 383, 322, 336, 355, 343, 409, 418, 407, 424, 469, 399, 387, 368},
{261, 222, 229, 225, 212, 240, 238, 233, 266, 276, 280, 291, 301, 337, 336, 317, 293, 298, 224, 218, 209, 236, 237, 262, 261, 314, 315, 331, 359, 383, 344, 335, 301, 255, 225, 219, 240, 250, 243, 236, 249, 209, 242, 265, 273, 250, 252, 233, 184, 167, 186, 196, 196, 198, 220, 241, 239, 213, 235, 221, 187, 188, 193, 169, 160, 180, 193, 193, 190, 196, 191, 182, 182, 211, 243, 239, 248, 240, 217, 191, 210, 211, 227, 254, 253, 231, 218, 201, 173, 162, 158, 159, 172, 184, 179, 182, 206, 225, 225, 230},
{820, 895, 869, 889, 852, 777, 685, 666, 576, 574, 644, 706, 706, 805, 788, 746, 691, 766, 694, 733, 727, 711, 647, 732, 707, 698, 737, 698, 664, 739, 724, 738, 715, 708, 642, 636, 586, 593, 519, 488, 573, 588, 672, 656, 646, 588, 599, 533, 525, 591, 628, 588, 623, 682, 646, 619, 659, 630, 540, 562, 540, 530, 609, 654, 640, 642, 644, 535, 549, 537, 547, 514, 548, 522, 518, 613, 615, 576, 546, 587, 523, 568, 583, 643, 614, 618, 619, 640, 641, 669, 646, 615, 572, 582, 582, 554, 526, 575, 551, 527},
{594, 631, 617, 628, 634, 571, 510, 493, 432, 415, 472, 557, 560, 607, 578, 539, 457, 533, 511, 505, 526, 522, 431, 503, 528, 511, 521, 533, 522, 531, 523, 574, 543, 473, 435, 428, 406, 414, 430, 440, 494, 458, 508, 483, 473, 454, 442, 400, 374, 415, 436, 450, 461, 505, 474, 435, 492, 472, 418, 441, 409, 372, 418, 507, 493, 513, 480, 452, 402, 404, 403, 406, 384, 340, 369, 421, 429, 423, 434, 417, 371, 367, 399, 426, 431, 442, 457, 459, 450, 465, 444, 409, 372, 357, 335, 343, 362, 386, 403, 392},
{216, 215, 217, 240, 245, 224, 218, 220, 179, 189, 203, 223, 211, 224, 203, 190, 162, 200, 214, 213, 220, 222, 189, 199, 211, 208, 224, 213, 236, 239, 245, 250, 255, 211, 198, 183, 163, 162, 142, 147, 171, 160, 176, 185, 180, 175, 179, 179, 171, 183, 192, 204, 191, 216, 202, 178, 176, 180, 147, 147, 146, 145, 150, 170, 172, 182, 168, 163, 150, 146, 137, 140, 131, 120, 138, 140, 136, 136, 146, 141, 147, 154, 162, 169, 171, 184, 189, 187, 173, 178, 160, 143, 135, 138, 125, 121, 130, 138, 150, 153},
{545, 554, 603, 539, 566, 579, 577, 540, 590, 593, 568, 513, 539, 493, 455, 453, 497, 518, 567, 580, 572, 587, 538, 488, 496, 490, 496, 477, 470, 462, 486, 504, 500, 519, 499, 491, 422, 527, 493, 499, 480, 432, 301, 351, 363, 347, 422, 502, 485, 476, 470, 489, 439, 507, 524, 542, 489, 446, 403, 408, 398, 403, 407, 420, 421, 432, 429, 483, 453, 441, 471, 478, 426, 417, 419, 395, 429, 485, 468, 472, 456, 406, 365, 413, 447, 496, 502, 485, 432, 440, 380, 358, 369, 380, 331, 332, 346, 336, 378, 355},
{579, 495, 485, 512, 535, 631, 746, 731, 730, 759, 665, 608, 615, 648, 599, 602, 659, 729, 744, 745, 728, 672, 618, 514, 519, 583, 645, 671, 725, 754, 771, 779, 728, 728, 702, 623, 539, 595, 545, 529, 635, 611, 537, 543, 535, 459, 472, 492, 470, 517, 483, 480, 519, 561, 516, 544, 511, 449, 395, 440, 374, 375, 405, 458, 413, 471, 485, 530, 496, 532, 521, 514, 455, 465, 470, 477, 528, 557, 543, 551, 536, 459, 403, 478, 458, 453, 481, 485, 419, 461, 473, 456, 503, 534, 474, 452, 493, 480, 504, 550}}

// 10 Reading of the 8 sensors, 100 samples per sensor
{{397, 414, 448, 463, 469, 446, 444, 441, 486, 467, 443, 432, 395, 324, 335, 380, 353, 367, 358, 370, 342, 357, 365, 361, 360, 380, 355, 322, 310, 268, 235, 254, 271, 300, 309, 415, 450, 490, 499, 525, 453, 435, 376, 361, 329, 322, 298, 296, 287, 300, 299, 333, 331, 325, 335, 308, 253, 262, 283, 257, 266, 284, 283, 302, 332, 322, 319, 323, 301, 264, 284, 293, 285, 272, 244, 280, 289, 314, 340, 374, 351, 340, 318, 297, 286, 268, 266, 279, 309, 307, 314, 315, 327, 294, 284, 291, 333, 304, 307, 334},
{719, 713, 757, 763, 714, 752, 732, 699, 685, 654, 538, 572, 578, 535, 614, 647, 614, 616, 652, 625, 581, 591, 629, 589, 584, 601, 605, 554, 507, 513, 562, 546, 510, 559, 494, 553, 587, 638, 647, 681, 556, 523, 489, 520, 534, 590, 588, 582, 540, 524, 495, 488, 453, 437, 483, 458, 451, 475, 470, 414, 411, 412, 400, 511, 523, 532, 532, 547, 529, 534, 525, 518, 476, 344, 287, 309, 361, 385, 391, 373, 372, 312, 311, 319, 334, 305, 303, 329, 400, 392, 437, 458, 451, 385, 417, 390, 418, 410, 419, 414},
{236, 270, 270, 266, 276, 274, 245, 252, 239, 217, 226, 227, 219, 214, 224, 193, 188, 206, 206, 190, 207, 198, 182, 183, 195, 180, 195, 185, 187, 187, 188, 181, 192, 221, 216, 237, 250, 272, 252, 250, 224, 231, 220, 207, 214, 215, 188, 191, 213, 202, 203, 210, 193, 190, 196, 196, 207, 196, 179, 170, 169, 140, 148, 159, 168, 182, 190, 182, 202, 188, 177, 175, 177, 146, 159, 144, 145, 148, 170, 165, 175, 185, 180, 164, 200, 206, 216, 214, 214, 187, 178, 150, 175, 194, 198, 208, 211, 214, 195, 187},
{710, 697, 705, 692, 696, 659, 706, 756, 775, 836, 811, 757, 702, 694, 604, 607, 577, 608, 568, 520, 618, 613, 561, 564, 709, 629, 649, 659, 680, 642, 607, 655, 736, 708, 626, 709, 675, 607, 618, 622, 612, 641, 665, 687, 702, 637, 581, 517, 488, 511, 513, 508, 480, 485, 496, 556, 621, 654, 664, 629, 588, 520, 463, 539, 585, 596, 616, 647, 598, 585, 617, 579, 586, 551, 498, 424, 533, 524, 640, 682, 727, 709, 719, 615, 593, 555, 542, 517, 545, 529, 517, 451, 556, 534, 562, 560, 598, 485, 486, 461},
{528, 489, 455, 443, 478, 483, 570, 615, 638, 671, 657, 579, 539, 507, 443, 422, 424, 432, 425, 380, 515, 496, 506, 491, 559, 470, 528, 522, 558, 533, 517, 484, 529, 529, 488, 553, 590, 553, 511, 523, 443, 460, 440, 473, 468, 460, 383, 390, 375, 381, 389, 382, 357, 368, 409, 424, 501, 533, 527, 500, 479, 383, 338, 340, 371, 374, 457, 467, 485, 457, 499, 411, 419, 375, 369, 317, 385, 412, 473, 518, 580, 599, 587, 552, 507, 423, 416, 392, 417, 411, 425, 370, 422, 398, 392, 382, 381, 313, 308, 307},
{177, 163, 156, 160, 163, 175, 202, 209, 234, 228, 233, 225, 236, 225, 221, 210, 197, 182, 164, 162, 196, 193, 187, 183, 198, 174, 184, 196, 212, 216, 212, 203, 212, 210, 183, 192, 193, 174, 155, 170, 157, 167, 160, 166, 166, 160, 146, 149, 138, 127, 142, 157, 156, 168, 181, 175, 190, 193, 189, 192, 197, 162, 162, 162, 155, 144, 163, 156, 154, 147, 176, 163, 185, 182, 181, 162, 171, 158, 192, 215, 224, 228, 230, 209, 182, 159, 145, 152, 152, 155, 165, 166, 162, 157, 149, 146, 142, 130, 144, 149},
{294, 315, 281, 273, 322, 313, 297, 361, 373, 335, 367, 380, 365, 389, 387, 361, 345, 309, 264, 272, 326, 335, 328, 334, 346, 327, 329, 341, 400, 459, 441, 442, 449, 419, 381, 390, 375, 382, 351, 372, 386, 438, 429, 437, 455, 446, 397, 382, 386, 354, 346, 417, 439, 478, 457, 472, 438, 429, 465, 517, 522, 518, 544, 468, 399, 397, 421, 399, 409, 406, 410, 418, 437, 425, 434, 469, 421, 390, 395, 395, 364, 347, 353, 357, 360, 324, 350, 387, 403, 450, 453, 481, 449, 467, 425, 419, 396, 427, 407, 449},
{471, 506, 503, 472, 478, 425, 398, 415, 439, 503, 550, 571, 524, 491, 430, 370, 328, 391, 381, 377, 404, 400, 335, 397, 429, 466, 464, 462, 465, 478, 436, 460, 495, 456, 496, 511, 494, 537, 531, 482, 535, 545, 503, 499, 473, 480, 477, 448, 486, 500, 414, 499, 540, 552, 569, 589, 579, 544, 509, 540, 522, 456, 506, 518, 486, 470, 507, 452, 413, 396, 449, 507, 614, 656, 647, 643, 582, 538, 548, 565, 564, 534, 554, 513, 531, 508, 548, 513, 613, 697, 686, 718, 696, 630, 495, 509, 424, 510, 496, 520}}

// 11 Reading of the 8 sensors, 100 samples per sensor
{{474, 499, 488, 468, 464, 427, 308, 289, 313, 288, 299, 306, 298, 407, 400, 418, 421, 433, 338, 329, 292, 280, 249, 227, 253, 269, 281, 280, 272, 234, 216, 186, 197, 203, 208, 226, 236, 235, 244, 240, 216, 224, 217, 186, 196, 190, 197, 227, 231, 220, 226, 211, 181, 181, 199, 208, 200, 224, 234, 251, 243, 270, 266, 275, 253, 248, 216, 212, 202, 260, 290, 314, 310, 298, 251, 238, 209, 208, 253, 284, 284, 287, 275, 231, 204, 198, 201, 234, 265, 251, 277, 279, 260, 235, 254, 233, 227, 224, 232, 214},
{605, 612, 650, 593, 576, 537, 466, 429, 446, 395, 412, 474, 444, 578, 590, 590, 527, 539, 387, 341, 361, 401, 460, 446, 470, 415, 395, 354, 346, 310, 324, 310, 281, 297, 300, 370, 440, 436, 455, 471, 407, 403, 403, 364, 358, 387, 324, 334, 337, 318, 356, 387, 373, 382, 415, 364, 324, 330, 350, 355, 346, 423, 423, 461, 491, 510, 444, 464, 439, 381, 383, 386, 355, 314, 335, 325, 316, 316, 351, 342, 342, 360, 341, 316, 332, 331, 345, 365, 390, 357, 349, 351, 336, 295, 291, 294, 247, 252, 249, 233},
{241, 210, 259, 260, 259, 267, 260, 200, 183, 197, 214, 219, 210, 239, 231, 244, 254, 258, 242, 230, 178, 169, 168, 142, 163, 185, 179, 187, 197, 198, 183, 185, 182, 185, 181, 182, 254, 250, 238, 231, 227, 203, 209, 210, 208, 216, 186, 212, 226, 241, 265, 246, 220, 213, 235, 211, 210, 217, 219, 177, 167, 163, 151, 145, 168, 176, 194, 225, 220, 224, 219, 207, 175, 193, 177, 186, 179, 179, 161, 194, 189, 192, 191, 189, 163, 156, 178, 190, 204, 208, 206, 229, 212, 195, 172, 185, 140, 142, 155, 173},
{772, 696, 734, 711, 650, 664, 670, 580, 573, 546, 543, 508, 489, 624, 634, 625, 597, 614, 613, 605, 621, 620, 615, 598, 649, 602, 674, 665, 587, 552, 519, 422, 414, 381, 365, 402, 446, 461, 479, 445, 473, 459, 537, 528, 544, 489, 459, 424, 437, 547, 581, 678, 688, 671, 600, 647, 646, 585, 610, 604, 578, 543, 569, 569, 633, 650, 611, 646, 671, 598, 570, 555, 499, 439, 484, 479, 451, 537, 572, 593, 581, 591, 536, 491, 419, 374, 403, 489, 539, 531, 580, 569, 468, 461, 500, 466, 466, 498, 462, 523},
{595, 571, 615, 596, 565, 553, 532, 431, 443, 426, 423, 444, 414, 459, 450, 407, 366, 362, 350, 341, 377, 361, 370, 381, 428, 398, 477, 478, 432, 443, 441, 365, 356, 351, 279, 270, 290, 297, 275, 274, 319, 330, 414, 432, 434, 397, 391, 350, 347, 435, 448, 486, 501, 493, 427, 436, 435, 364, 366, 357, 341, 350, 362, 361, 399, 400, 327, 354, 390, 342, 369, 363, 342, 281, 333, 322, 315, 359, 419, 422, 411, 420, 375, 320, 293, 284, 281, 323, 347, 320, 392, 396, 389, 383, 405, 345, 334, 312, 304, 334},
{250, 238, 250, 240, 223, 197, 206, 170, 182, 177, 187, 165, 160, 167, 164, 152, 150, 146, 141, 133, 145, 143, 138, 135, 161, 152, 185, 190, 181, 183, 180, 144, 143, 133, 97, 100, 116, 108, 105, 108, 106, 97, 130, 139, 138, 135, 144, 140, 142, 159, 164, 167, 177, 172, 165, 162, 157, 135, 135, 123, 114, 141, 137, 138, 145, 145, 111, 103, 115, 112, 123, 122, 128, 117, 112, 108, 100, 98, 109, 121, 118, 122, 114, 105, 113, 120, 123, 133, 131, 112, 123, 121, 116, 119, 124, 111, 108, 104, 118, 139},
{449, 445, 467, 435, 436, 449, 398, 380, 398, 373, 377, 370, 368, 393, 380, 321, 327, 352, 290, 369, 384, 386, 346, 359, 317, 311, 368, 372, 370, 361, 379, 307, 372, 359, 338, 342, 355, 299, 301, 345, 320, 371, 362, 374, 355, 355, 329, 361, 422, 425, 469, 466, 447, 376, 361, 291, 304, 326, 319, 308, 348, 336, 313, 341, 379, 373, 344, 349, 347, 336, 332, 362, 381, 376, 350, 342, 326, 349, 353, 363, 361, 339, 284, 338, 333, 396, 402, 394, 343, 385, 351, 354, 386, 403, 400, 367, 384, 377, 408, 424},
{611, 668, 686, 647, 652, 622, 513, 480, 583, 602, 592, 594, 575, 576, 523, 521, 500, 518, 405, 414, 432, 435, 415, 398, 460, 444, 540, 575, 609, 563, 545, 445, 421, 350, 332, 336, 353, 385, 425, 407, 410, 407, 344, 300, 315, 299, 327, 367, 389, 380, 446, 461, 431, 428, 446, 396, 351, 389, 405, 376, 350, 387, 416, 424, 453, 492, 483, 457, 432, 466, 479, 533, 536, 536, 538, 502, 445, 451, 483, 456, 477, 455, 428, 441, 410, 504, 501, 506, 470, 467, 430, 433, 456, 435, 490, 441, 485, 456, 505, 477}}

// 12 Reading of the 8 sensors, 100 samples per sensor
{{184, 207, 197, 183, 172, 198, 168, 200, 211, 215, 189, 198, 176, 182, 171, 180, 228, 257, 255, 266, 281, 258, 237, 230, 238, 210, 184, 182, 189, 157, 161, 161, 153, 147, 155, 163, 215, 208, 204, 206, 249, 221, 247, 250, 257, 221, 212, 190, 210, 204, 185, 202, 195, 180, 194, 197, 193, 199, 222, 199, 201, 200, 192, 150, 146, 146, 118, 136, 162, 177, 176, 177, 166, 148, 137, 158, 150, 153, 162, 162, 137, 150, 150, 140, 140, 151, 178, 175, 172, 182, 188, 166, 172, 180, 166, 147, 135, 146, 139, 139},
{324, 338, 341, 375, 355, 318, 290, 287, 257, 271, 266, 279, 293, 290, 320, 325, 328, 365, 368, 371, 378, 353, 329, 313, 314, 310, 329, 304, 305, 261, 265, 257, 243, 248, 241, 249, 267, 287, 265, 275, 286, 259, 308, 308, 298, 298, 319, 249, 299, 288, 262, 283, 284, 241, 274, 291, 266, 265, 279, 251, 225, 208, 218, 195, 205, 199, 186, 186, 195, 204, 202, 204, 212, 229, 213, 242, 241, 227, 241, 241, 214, 236, 241, 212, 213, 218, 230, 244, 240, 250, 262, 240, 213, 201, 189, 180, 171, 176, 167, 169},
{221, 207, 203, 151, 127, 139, 124, 124, 124, 135, 125, 125, 127, 116, 95, 98, 88, 111, 128, 149, 161, 165, 158, 146, 144, 146, 142, 137, 132, 124, 105, 101, 102, 117, 110, 112, 128, 124, 116, 112, 112, 112, 114, 127, 136, 134, 123, 117, 103, 94, 92, 96, 101, 96, 93, 97, 107, 105, 110, 108, 117, 109, 110, 114, 115, 119, 128, 121, 117, 114, 105, 84, 106, 112, 120, 130, 142, 128, 133, 134, 145, 139, 143, 134, 127, 95, 97, 98, 94, 110, 125, 133, 131, 128, 114, 96, 84, 85, 88, 97},
{546, 467, 450, 389, 367, 366, 446, 450, 524, 535, 532, 476, 518, 445, 432, 428, 486, 461, 498, 503, 633, 652, 685, 648, 672, 545, 561, 548, 543, 510, 496, 367, 310, 338, 342, 399, 446, 472, 493, 474, 453, 486, 464, 460, 570, 584, 540, 557, 570, 463, 435, 449, 418, 354, 367, 380, 345, 335, 357, 400, 468, 468, 522, 553, 595, 535, 541, 491, 461, 357, 399, 384, 384, 369, 378, 323, 334, 359, 380, 406, 408, 424, 449, 490, 471, 469, 453, 407, 320, 353, 413, 431, 459, 462, 412, 356, 322, 326, 336, 370},
{358, 308, 290, 288, 286, 285, 287, 291, 303, 317, 293, 297, 315, 291, 296, 289, 344, 340, 387, 370, 406, 381, 412, 396, 426, 398, 387, 358, 317, 277, 270, 249, 236, 267, 272, 304, 326, 335, 346, 346, 313, 321, 311, 291, 349, 369, 346, 351, 354, 283, 258, 281, 273, 261, 267, 273, 248, 253, 273, 264, 299, 295, 299, 315, 377, 336, 349, 333, 311, 257, 286, 259, 260, 250, 248, 229, 246, 280, 310, 291, 298, 313, 294, 312, 314, 310, 293, 292, 245, 272, 297, 301, 315, 310, 283, 251, 234, 253, 238, 248},
{170, 145, 133, 129, 114, 99, 97, 104, 111, 124, 118, 123, 121, 124, 111, 116, 129, 136, 139, 152, 154, 144, 152, 142, 132, 131, 130, 116, 110, 101, 110, 100, 96, 101, 108, 112, 131, 131, 131, 129, 115, 106, 100, 98, 102, 110, 99, 101, 100, 87, 75, 89, 98, 96, 98, 100, 100, 102, 108, 110, 117, 112, 114, 111, 123, 114, 116, 102, 101, 83, 86, 84, 91, 125, 127, 136, 134, 132, 119, 115, 114, 119, 118, 104, 107, 95, 92, 94, 98, 104, 113, 112, 120, 115, 114, 116, 118, 108, 105, 107},
{364, 316, 312, 303, 290, 219, 225, 212, 226, 278, 269, 287, 268, 283, 274, 282, 287, 304, 283, 260, 266, 247, 307, 309, 323, 323, 317, 256, 243, 217, 253, 250, 286, 304, 316, 279, 285, 280, 261, 237, 265, 271, 239, 290, 293, 265, 259, 257, 208, 237, 254, 258, 247, 245, 231, 233, 248, 275, 269, 258, 236, 220, 199, 219, 227, 266, 285, 310, 319, 356, 338, 350, 324, 378, 345, 397, 377, 379, 323, 315, 259, 282, 273, 268, 266, 241, 186, 252, 264, 301, 316, 340, 327, 328, 310, 325, 350, 364, 383, 383},
{357, 324, 290, 273, 255, 241, 235, 251, 268, 353, 357, 428, 404, 399, 367, 375, 362, 401, 389, 385, 394, 360, 317, 313, 329, 339, 313, 321, 321, 291, 252, 258, 285, 321, 302, 321, 327, 305, 283, 286, 306, 346, 370, 377, 382, 349, 300, 269, 258, 260, 296, 329, 336, 337, 358, 354, 335, 336, 324, 297, 288, 281, 263, 276, 284, 283, 295, 346, 366, 369, 367, 406, 366, 364, 356, 415, 364, 367, 362, 353, 289, 278, 277, 264, 286, 271, 270, 288, 297, 290, 299, 313, 307, 287, 276, 282, 297, 311, 349, 372}}

// 13 Reading of the 8 sensors, 100 samples per sensor
{{221, 241, 244, 226, 228, 223, 252, 243, 256, 272, 281, 233, 239, 239, 205, 221, 240, 214, 225, 257, 266, 262, 270, 264, 238, 238, 249, 253, 260, 269, 237, 240, 228, 210, 201, 209, 209, 222, 216, 225, 230, 199, 202, 194, 202, 197, 215, 193, 190, 171, 160, 190, 241, 262, 273, 290, 269, 229, 228, 214, 206, 200, 191, 178, 211, 220, 227, 260, 270, 259, 246, 236, 213, 202, 179, 165, 221, 213, 221, 220, 228, 227, 241, 251, 249, 257, 213, 217, 233, 234, 217, 207, 257, 243, 250, 259, 263, 213, 202, 199},
{341, 371, 397, 404, 409, 448, 433, 405, 407, 434, 413, 408, 447, 427, 384, 382, 422, 378, 379, 414, 385, 360, 375, 390, 345, 358, 322, 299, 338, 380, 373, 426, 414, 377, 364, 337, 317, 388, 387, 400, 434, 411, 357, 332, 314, 286, 269, 268, 275, 279, 270, 295, 311, 354, 360, 375, 371, 359, 309, 298, 277, 249, 240, 325, 331, 323, 351, 367, 300, 269, 263, 232, 284, 315, 318, 333, 340, 302, 312, 313, 321, 332, 342, 347, 343, 328, 325, 293, 264, 263, 262, 230, 334, 344, 363, 391, 402, 356, 336, 335},
{171, 166, 149, 119, 115, 132, 137, 161, 159, 156, 151, 148, 125, 173, 177, 163, 159, 168, 117, 127, 137, 154, 143, 158, 150, 152, 147, 156, 164, 166, 161, 182, 182, 180, 175, 178, 183, 182, 175, 194, 209, 190, 192, 193, 175, 153, 140, 143, 154, 151, 147, 157, 182, 172, 175, 186, 178, 133, 127, 150, 153, 160, 165, 161, 160, 153, 140, 141, 152, 134, 143, 148, 161, 160, 158, 141, 146, 133, 138, 127, 135, 136, 143, 149, 158, 158, 193, 186, 185, 184, 191, 150, 152, 142, 159, 161, 188, 191, 183, 191},
{507, 476, 497, 570, 572, 619, 710, 723, 698, 713, 663, 565, 554, 525, 474, 450, 458, 481, 488, 448, 559, 587, 579, 579, 578, 585, 594, 596, 576, 595, 506, 473, 446, 507, 469, 437, 409, 470, 493, 552, 575, 583, 552, 453, 437, 426, 436, 434, 438, 558, 563, 602, 628, 670, 583, 610, 562, 506, 509, 471, 493, 598, 616, 576, 608, 580, 464, 468, 501, 540, 530, 549, 560, 520, 447, 442, 425, 408, 545, 540, 549, 555, 519, 407, 418, 433, 419, 477, 445, 432, 503, 503, 472, 519, 554, 431, 505, 505, 540, 502},
{406, 365, 375, 407, 384, 391, 474, 478, 450, 442, 431, 346, 333, 357, 361, 343, 371, 374, 360, 321, 407, 396, 402, 417, 427, 411, 444, 448, 432, 435, 389, 344, 323, 350, 332, 309, 286, 322, 303, 343, 368, 382, 401, 388, 364, 349, 348, 327, 314, 406, 412, 407, 396, 419, 349, 390, 390, 376, 403, 378, 332, 456, 457, 432, 451, 469, 340, 348, 332, 348, 319, 327, 350, 338, 316, 314, 312, 271, 370, 356, 374, 389, 384, 291, 309, 331, 310, 319, 305, 288, 329, 326, 347, 379, 398, 328, 382, 378, 378, 351},
{138, 124, 128, 128, 124, 128, 164, 167, 161, 157, 158, 133, 135, 155, 160, 158, 163, 154, 143, 134, 172, 165, 166, 172, 171, 143, 158, 161, 147, 152, 133, 114, 114, 122, 122, 128, 125, 138, 142, 136, 150, 172, 169, 160, 167, 153, 136, 136, 140, 149, 152, 145, 142, 146, 134, 143, 140, 131, 144, 135, 129, 144, 148, 132, 141, 137, 122, 120, 119, 107, 114, 113, 141, 135, 146, 139, 144, 117, 154, 147, 146, 152, 153, 122, 128, 147, 147, 146, 142, 143, 142, 136, 142, 147, 145, 129, 136, 143, 153, 151},
{336, 345, 367, 328, 352, 374, 359, 355, 365, 387, 351, 365, 367, 420, 434, 443, 438, 448, 406, 351, 375, 345, 303, 301, 283, 246, 260, 260, 248, 327, 330, 335, 366, 367, 331, 321, 311, 301, 325, 303, 344, 362, 336, 308, 338, 321, 315, 342, 348, 345, 324, 334, 350, 361, 399, 405, 390, 358, 341, 254, 246, 235, 256, 319, 364, 386, 387, 380, 328, 337, 342, 337, 356, 354, 323, 298, 302, 280, 292, 311, 301, 299, 374, 381, 370, 375, 387, 320, 313, 316, 331, 306, 289, 281, 264, 230, 276, 292, 299, 349},
{350, 359, 413, 356, 355, 357, 363, 322, 355, 361, 353, 355, 347, 383, 377, 377, 384, 391, 372, 385, 387, 342, 331, 307, 283, 348, 375, 404, 392, 459, 411, 453, 439, 437, 409, 390, 358, 398, 388, 373, 406, 393, 357, 366, 332, 328, 303, 295, 302, 328, 296, 335, 381, 376, 405, 424, 394, 352, 368, 308, 305, 304, 299, 268, 341, 339, 340, 369, 369, 387, 400, 418, 415, 413, 379, 375, 385, 346, 370, 345, 319, 328, 385, 385, 498, 498, 490, 466, 470, 329, 330, 318, 303, 264, 273, 323, 302, 289, 291, 326}}

// 14 Reading of the 8 sensors, 100 samples per sensor
{{317, 289, 260, 243, 227, 239, 235, 240, 261, 288, 271, 294, 300, 309, 278, 286, 258, 253, 225, 215, 205, 207, 221, 198, 202, 233, 255, 231, 229, 216, 198, 179, 206, 224, 212, 214, 215, 199, 210, 229, 289, 282, 292, 279, 271, 209, 207, 189, 188, 200, 213, 218, 237, 241, 241, 221, 226, 198, 176, 187, 190, 183, 192, 199, 177, 156, 148, 147, 146, 143, 140, 136, 140, 139, 159, 176, 192, 205, 220, 200, 197, 189, 182, 173, 180, 174, 196, 209, 207, 206, 218, 190, 167, 166, 175, 175, 176, 158, 165, 166},
{474, 459, 345, 318, 328, 308, 345, 357, 373, 389, 369, 326, 309, 328, 319, 337, 331, 398, 365, 345, 354, 359, 327, 321, 346, 320, 293, 248, 259, 214, 292, 321, 345, 378, 379, 350, 377, 372, 356, 359, 388, 336, 376, 364, 361, 320, 333, 275, 279, 300, 324, 337, 367, 389, 381, 338, 363, 333, 295, 282, 280, 241, 228, 232, 215, 281, 282, 313, 304, 305, 249, 234, 233, 245, 277, 282, 279, 250, 236, 199, 209, 246, 269, 263, 264, 257, 257, 228, 237, 240, 271, 229, 233, 236, 227, 191, 192, 216, 204, 216},
{280, 263, 221, 203, 199, 183, 202, 180, 191, 200, 206, 206, 219, 205, 204, 191, 182, 194, 191, 195, 198, 214, 202, 234, 228, 236, 210, 203, 195, 197, 186, 199, 212, 191, 193, 186, 180, 185, 207, 195, 193, 200, 193, 170, 255, 264, 267, 257, 264, 199, 206, 213, 243, 225, 220, 203, 179, 193, 202, 208, 224, 222, 174, 175, 187, 194, 197, 200, 189, 190, 188, 198, 203, 198, 188, 178, 165, 164, 166, 149, 138, 149, 145, 180, 197, 196, 201, 197, 160, 140, 142, 124, 151, 154, 149, 155, 149, 134, 152, 159},
{517, 523, 504, 552, 574, 535, 544, 547, 596, 578, 554, 532, 559, 539, 585, 597, 581, 556, 506, 483, 488, 515, 544, 575, 536, 551, 527, 530, 472, 490, 531, 510, 534, 543, 519, 446, 437, 375, 461, 501, 516, 541, 526, 507, 485, 469, 460, 525, 496, 470, 541, 528, 482, 475, 465, 407, 426, 413, 422, 461, 451, 431, 472, 448, 416, 409, 479, 431, 536, 609, 592, 607, 617, 524, 443, 464, 410, 398, 388, 372, 373, 341, 341, 362, 368, 354, 338, 329, 333, 374, 450, 453, 502, 529, 507, 444, 523, 503, 495, 525},
{406, 410, 380, 383, 385, 331, 309, 318, 358, 386, 379, 414, 433, 429, 444, 448, 418, 400, 379, 357, 361, 357, 366, 365, 327, 321, 369, 401, 370, 374, 407, 376, 350, 377, 369, 357, 343, 346, 383, 382, 369, 399, 380, 348, 379, 381, 339, 368, 391, 362, 359, 363, 339, 275, 256, 242, 270, 254, 277, 316, 314, 284, 316, 299, 275, 276, 315, 291, 371, 406, 398, 398, 413, 346, 296, 312, 293, 261, 247, 232, 209, 219, 212, 209, 215, 219, 172, 199, 227, 260, 315, 323, 353, 381, 362, 315, 370, 350, 342, 382},
{149, 148, 145, 128, 114, 105, 109, 108, 133, 151, 147, 147, 155, 148, 149, 153, 149, 140, 134, 120, 119, 115, 126, 125, 119, 127, 151, 161, 151, 155, 150, 132, 118, 126, 131, 127, 125, 121, 138, 124, 131, 140, 135, 120, 128, 124, 110, 116, 119, 113, 116, 114, 108, 96, 93, 95, 108, 107, 108, 118, 108, 101, 110, 105, 101, 119, 126, 124, 140, 149, 138, 133, 146, 140, 125, 126, 124, 101, 98, 97, 94, 95, 93, 88, 89, 88, 83, 89, 90, 96, 108, 110, 112, 122, 119, 105, 114, 112, 106, 105},
{381, 398, 375, 328, 301, 297, 334, 351, 359, 364, 354, 312, 307, 299, 284, 277, 285, 276, 278, 317, 323, 296, 290, 287, 341, 346, 389, 419, 420, 352, 353, 314, 290, 281, 293, 357, 420, 439, 446, 448, 390, 340, 306, 299, 314, 331, 300, 307, 305, 303, 283, 292, 285, 288, 287, 331, 335, 337, 349, 330, 323, 329, 324, 328, 341, 309, 287, 292, 276, 254, 240, 288, 369, 363, 364, 365, 332, 276, 310, 323, 338, 333, 315, 273, 263, 242, 248, 213, 214, 217, 212, 253, 283, 299, 291, 325, 307, 290, 289, 276},
{454, 436, 418, 371, 349, 291, 314, 344, 385, 399, 397, 443, 464, 466, 416, 481, 424, 379, 347, 365, 289, 272, 295, 287, 314, 360, 414, 393, 418, 397, 390, 358, 365, 347, 346, 364, 377, 434, 448, 464, 470, 474, 418, 385, 361, 328, 320, 345, 397, 422, 387, 386, 364, 304, 308, 385, 362, 358, 370, 341, 354, 363, 389, 397, 413, 363, 367, 345, 361, 352, 325, 322, 439, 419, 425, 442, 451, 381, 381, 351, 317, 287, 239, 239, 263, 273, 295, 319, 312, 299, 298, 291, 311, 314, 305, 309, 299, 233, 265, 263}}

// 15 Reading of the 8 sensors, 100 samples per sensorr
{{220, 242, 238, 250, 252, 268, 269, 273, 260, 267, 270, 253, 237, 235, 224, 214, 221, 207, 217, 199, 189, 181, 193, 211, 228, 239, 232, 245, 228, 222, 229, 235, 212, 221, 223, 218, 261, 272, 254, 251, 246, 200, 183, 256, 256, 254, 256, 250, 175, 222, 217, 231, 236, 228, 182, 174, 186, 179, 208, 221, 230, 197, 205, 194, 180, 169, 178, 179, 191, 203, 202, 208, 236, 214, 200, 209, 197, 195, 214, 218, 208, 212, 199, 182, 186, 194, 197, 170, 166, 154, 168, 154, 144, 173, 176, 166, 167, 168, 130, 131},
{248, 247, 249, 245, 258, 286, 314, 325, 322, 297, 274, 248, 264, 273, 341, 338, 332, 318, 345, 300, 300, 339, 343, 347, 349, 372, 338, 355, 378, 356, 375, 377, 375, 347, 357, 303, 356, 325, 288, 279, 281, 194, 165, 220, 220, 252, 254, 272, 236, 311, 303, 312, 299, 308, 234, 231, 250, 270, 283, 313, 296, 274, 265, 264, 230, 245, 246, 260, 257, 288, 277, 291, 281, 270, 253, 262, 246, 238, 246, 223, 216, 215, 245, 219, 205, 250, 293, 280, 292, 308, 284, 247, 231, 227, 220, 219, 226, 224, 217, 222},
{228, 249, 266, 265, 273, 225, 205, 183, 188, 171, 187, 175, 201, 197, 190, 167, 184, 192, 229, 239, 244, 248, 227, 189, 174, 169, 151, 140, 144, 150, 169, 168, 185, 183, 180, 171, 187, 169, 166, 181, 179, 147, 159, 173, 152, 148, 153, 143, 123, 127, 138, 151, 149, 151, 152, 141, 130, 126, 122, 135, 133, 125, 142, 137, 122, 124, 127, 110, 112, 120, 116, 117, 119, 144, 137, 146, 156, 150, 122, 124, 111, 105, 108, 125, 118, 145, 139, 139, 137, 139, 114, 112, 110, 100, 109, 110, 109, 104, 97, 82},
{573, 625, 674, 722, 719, 700, 611, 581, 624, 601, 556, 565, 594, 540, 593, 630, 622, 676, 674, 650, 631, 642, 568, 645, 636, 635, 660, 642, 551, 644, 658, 646, 717, 703, 613, 632, 654, 575, 574, 582, 538, 476, 489, 479, 452, 421, 409, 419, 447, 486, 489, 579, 528, 515, 532, 567, 506, 582, 584, 566, 548, 544, 509, 507, 502, 479, 473, 446, 462, 520, 531, 565, 575, 557, 589, 590, 598, 591, 596, 476, 471, 394, 468, 501, 531, 585, 634, 566, 545, 551, 505, 448, 443, 449, 438, 418, 452, 532, 534, 543},
{393, 406, 454, 466, 487, 459, 411, 358, 381, 364, 353, 385, 449, 433, 471, 499, 493, 497, 490, 456, 421, 418, 373, 437, 432, 432, 427, 432, 368, 424, 433, 425, 464, 458, 403, 420, 450, 374, 373, 380, 349, 306, 330, 336, 324, 329, 324, 324, 345, 382, 374, 428, 399, 396, 386, 438, 422, 458, 445, 482, 469, 441, 459, 454, 402, 369, 383, 325, 331, 385, 399, 405, 431, 422, 399, 370, 367, 356, 350, 308, 350, 336, 377, 418, 430, 435, 454, 402, 376, 372, 347, 339, 334, 346, 347, 345, 351, 373, 357, 355},
{111, 117, 129, 140, 142, 145, 132, 123, 124, 129, 129, 141, 174, 162, 181, 200, 198, 196, 202, 188, 165, 165, 149, 154, 144, 142, 142, 136, 124, 131, 147, 144, 157, 158, 160, 174, 188, 166, 165, 161, 135, 113, 116, 132, 128, 128, 131, 153, 144, 154, 148, 164, 141, 144, 146, 155, 149, 153, 150, 165, 167, 156, 155, 150, 128, 123, 119, 121, 118, 126, 127, 141, 144, 147, 133, 121, 126, 129, 129, 128, 141, 125, 132, 139, 141, 135, 146, 127, 122, 118, 127, 121, 115, 110, 125, 126, 130, 150, 154, 146},
{217, 199, 229, 274, 284, 275, 289, 286, 254, 276, 296, 301, 302, 315, 307, 322, 340, 331, 312, 303, 301, 292, 345, 356, 362, 338, 317, 244, 231, 210, 249, 283, 316, 319, 349, 351, 385, 403, 420, 427, 409, 365, 333, 359, 329, 359, 351, 382, 347, 350, 315, 353, 297, 330, 342, 339, 336, 338, 298, 284, 304, 271, 279, 261, 273, 275, 267, 310, 324, 314, 327, 322, 303, 300, 308, 269, 268, 258, 255, 247, 287, 287, 280, 284, 281, 232, 269, 293, 296, 289, 324, 306, 304, 328, 352, 375, 374, 385, 368, 349},
{240, 195, 254, 262, 336, 331, 339, 355, 359, 345, 360, 362, 328, 324, 315, 310, 330, 367, 371, 342, 348, 351, 304, 300, 334, 349, 330, 349, 347, 315, 300, 319, 306, 312, 358, 383, 423, 402, 405, 428, 424, 371, 405, 495, 443, 436, 472, 463, 359, 395, 377, 357, 336, 345, 315, 295, 366, 373, 381, 422, 458, 375, 393, 367, 316, 278, 284, 243, 254, 249, 258, 251, 297, 301, 322, 319, 313, 298, 295, 332, 345, 347, 375, 370, 336, 325, 392, 358, 368, 349, 366, 310, 294, 306, 292, 278, 275, 275, 261, 264}}

// 16 Reading of the 8 sensors, 100 samples per sensor
{{296, 294, 284, 316, 326, 289, 300, 312, 259, 260, 270, 266, 245, 238, 224, 241, 212, 205, 227, 238, 208, 247, 280, 278, 269, 271, 266, 249, 248, 234, 242, 226, 217, 208, 197, 208, 213, 213, 207, 227, 197, 189, 206, 262, 254, 267, 261, 259, 216, 211, 216, 215, 197, 196, 188, 175, 176, 162, 149, 159, 149, 180, 199, 193, 226, 265, 250, 251, 256, 222, 179, 202, 184, 190, 189, 180, 182, 188, 198, 199, 213, 197, 210, 198, 227, 230, 223, 222, 214, 191, 183, 186, 171, 183, 192, 198, 227, 233, 239, 233},
{293, 288, 293, 319, 357, 433, 421, 410, 367, 348, 298, 307, 303, 340, 343, 360, 336, 346, 349, 364, 312, 307, 289, 247, 203, 245, 287, 307, 331, 337, 304, 275, 251, 232, 213, 278, 287, 285, 303, 319, 268, 279, 306, 330, 317, 318, 297, 293, 264, 265, 299, 325, 305, 329, 333, 325, 291, 298, 263, 297, 286, 299, 296, 283, 304, 325, 317, 329, 327, 279, 253, 285, 262, 263, 278, 265, 258, 257, 290, 272, 278, 282, 290, 257, 303, 307, 297, 290, 284, 227, 254, 240, 235, 236, 262, 199, 241, 247, 241, 211},
{256, 267, 265, 244, 279, 258, 240, 267, 274, 247, 273, 265, 223, 220, 217, 201, 178, 182, 188, 203, 211, 215, 224, 212, 198, 164, 162, 144, 155, 143, 139, 171, 184, 178, 181, 180, 142, 139, 128, 135, 137, 150, 153, 163, 162, 162, 168, 151, 150, 153, 165, 159, 176, 195, 197, 183, 173, 160, 138, 120, 126, 143, 149, 153, 189, 190, 181, 172, 168, 132, 160, 163, 173, 184, 179, 170, 175, 173, 152, 153, 138, 149, 147, 148, 153, 148, 145, 148, 153, 146, 159, 138, 129, 136, 139, 126, 135, 131, 125, 124},
{599, 624, 629, 579, 608, 624, 588, 546, 578, 547, 568, 545, 585, 586, 607, 561, 526, 542, 499, 517, 507, 615, 608, 622, 562, 593, 499, 463, 540, 612, 587, 618, 660, 627, 526, 520, 473, 397, 356, 385, 401, 422, 513, 548, 534, 558, 542, 498, 485, 505, 535, 541, 499, 454, 431, 363, 398, 485, 538, 561, 550, 501, 536, 523, 578, 624, 647, 592, 610, 548, 502, 507, 490, 463, 432, 454, 443, 424, 493, 534, 529, 569, 572, 475, 486, 510, 471, 533, 556, 534, 476, 488, 406, 404, 368, 461, 494, 511, 553, 567},
{454, 436, 406, 384, 437, 435, 450, 443, 442, 364, 381, 354, 397, 417, 438, 426, 413, 416, 391, 409, 405, 473, 476, 494, 456, 477, 418, 363, 381, 388, 350, 360, 367, 339, 290, 300, 282, 269, 277, 319, 329, 328, 404, 422, 403, 398, 406, 361, 371, 367, 385, 390, 357, 317, 304, 252, 282, 312, 333, 347, 360, 316, 334, 323, 364, 403, 415, 394, 425, 379, 353, 358, 371, 334, 329, 355, 328, 287, 316, 362, 352, 372, 395, 357, 343, 323, 330, 344, 351, 356, 334, 340, 321, 325, 289, 329, 360, 345, 369, 401},
{151, 151, 156, 154, 163, 155, 168, 171, 168, 149, 160, 147, 158, 164, 172, 168, 164, 149, 142, 132, 128, 145, 159, 161, 162, 166, 152, 130, 136, 130, 127, 136, 141, 131, 129, 132, 124, 120, 125, 125, 127, 123, 131, 138, 132, 125, 133, 128, 129, 133, 138, 135, 127, 122, 123, 115, 119, 127, 125, 130, 131, 120, 134, 136, 142, 155, 158, 145, 146, 131, 116, 119, 110, 97, 96, 109, 102, 98, 110, 123, 120, 124, 136, 132, 125, 117, 113, 107, 100, 98, 97, 108, 115, 118, 118, 122, 126, 118, 124, 130},
{304, 312, 303, 305, 277, 262, 277, 325, 327, 349, 399, 395, 382, 396, 410, 402, 399, 389, 427, 409, 395, 400, 400, 333, 313, 299, 276, 277, 301, 309, 317, 351, 357, 333, 366, 386, 381, 379, 403, 416, 401, 407, 418, 431, 384, 454, 443, 425, 411, 407, 313, 295, 276, 306, 291, 290, 280, 301, 232, 310, 302, 308, 302, 309, 263, 263, 299, 301, 294, 306, 329, 319, 312, 316, 313, 310, 298, 318, 400, 421, 409, 406, 432, 385, 340, 337, 346, 331, 301, 298, 314, 298, 329, 334, 352, 382, 478, 490, 509, 523},
{465, 495, 498, 444, 468, 431, 399, 398, 437, 498, 525, 533, 544, 498, 482, 479, 465, 487, 528, 467, 530, 543, 533, 497, 477, 411, 385, 359, 402, 432, 456, 457, 441, 430, 459, 399, 433, 497, 487, 436, 453, 446, 451, 535, 519, 576, 585, 543, 469, 482, 457, 401, 364, 377, 368, 290, 309, 328, 280, 289, 283, 308, 350, 365, 392, 391, 388, 352, 335, 299, 294, 311, 298, 306, 294, 314, 312, 325, 334, 361, 357, 332, 327, 384, 359, 341, 335, 331, 223, 240, 255, 281, 337, 375, 438, 438, 525, 513, 518, 489}}

// 17 Reading of the 8 sensors, 100 samples per sensor
{{246, 239, 247, 200, 210, 227, 214, 173, 212, 226, 239, 251, 274, 264, 256, 224, 221, 225, 223, 211, 215, 200, 170, 143, 168, 182, 202, 203, 206, 192, 182, 174, 198, 210, 207, 206, 210, 179, 164, 175, 166, 160, 154, 158, 145, 163, 154, 161, 154, 159, 154, 155, 155, 158, 167, 194, 192, 195, 212, 223, 196, 202, 194, 170, 148, 161, 179, 201, 209, 198, 185, 169, 159, 145, 155, 147, 138, 139, 191, 184, 199, 214, 207, 169, 183, 210, 203, 212, 216, 222, 187, 179, 174, 165, 165, 168, 163, 150, 156, 133},
{353, 300, 307, 297, 289, 321, 326, 328, 345, 369, 346, 353, 342, 327, 303, 282, 272, 305, 292, 298, 337, 335, 315, 313, 326, 344, 340, 331, 323, 305, 291, 321, 369, 366, 379, 346, 301, 272, 272, 249, 243, 258, 212, 198, 182, 167, 182, 202, 219, 229, 227, 247, 257, 256, 284, 316, 295, 267, 264, 243, 211, 210, 220, 222, 210, 203, 189, 208, 202, 209, 211, 222, 199, 191, 190, 227, 230, 243, 284, 273, 254, 250, 230, 190, 245, 240, 228, 262, 259, 219, 212, 216, 169, 168, 207, 210, 208, 241, 279, 272},
{158, 142, 150, 135, 136, 131, 155, 144, 150, 143, 156, 126, 135, 149, 150, 136, 131, 125, 100, 107, 115, 120, 126, 120, 117, 121, 118, 109, 119, 113, 102, 103, 117, 107, 111, 120, 124, 121, 124, 124, 117, 116, 144, 159, 156, 151, 156, 126, 108, 128, 140, 132, 151, 150, 133, 138, 142, 120, 123, 124, 110, 119, 116, 127, 134, 144, 135, 132, 112, 103, 89, 85, 98, 106, 103, 100, 99, 96, 93, 96, 91, 88, 79, 75, 81, 82, 118, 124, 125, 124, 129, 113, 110, 108, 117, 117, 106, 105, 116, 115},
{622, 627, 648, 576, 496, 579, 636, 589, 619, 645, 573, 466, 490, 508, 469, 511, 534, 515, 478, 578, 548, 528, 583, 554, 501, 525, 515, 518, 555, 500, 449, 505, 455, 464, 444, 448, 476, 467, 468, 529, 583, 530, 597, 603, 598, 571, 676, 658, 625, 660, 709, 624, 626, 648, 591, 550, 549, 517, 520, 532, 496, 495, 465, 465, 495, 575, 571, 588, 586, 560, 538, 530, 528, 519, 482, 455, 428, 416, 378, 413, 420, 454, 435, 534, 557, 527, 596, 618, 579, 550, 585, 518, 495, 467, 490, 458, 476, 497, 508, 546},
{473, 480, 496, 451, 377, 417, 446, 422, 465, 463, 448, 402, 404, 352, 346, 325, 322, 300, 316, 392, 414, 405, 460, 441, 385, 395, 387, 349, 382, 361, 320, 347, 337, 332, 339, 342, 333, 343, 338, 334, 345, 336, 372, 387, 412, 394, 470, 451, 409, 447, 459, 391, 404, 422, 382, 398, 404, 358, 397, 378, 359, 380, 398, 368, 395, 428, 403, 394, 411, 391, 386, 381, 406, 379, 360, 329, 321, 302, 297, 298, 323, 337, 306, 362, 384, 346, 411, 426, 384, 364, 401, 365, 355, 350, 358, 328, 316, 322, 350, 394},
{148, 148, 153, 146, 126, 142, 144, 141, 147, 155, 151, 151, 147, 135, 125, 128, 123, 120, 125, 141, 140, 138, 155, 149, 134, 130, 130, 118, 133, 131, 125, 121, 119, 109, 114, 116, 115, 132, 144, 139, 133, 147, 144, 134, 137, 144, 142, 133, 128, 147, 152, 141, 158, 159, 152, 155, 163, 135, 157, 151, 147, 156, 169, 153, 150, 158, 143, 134, 136, 126, 118, 119, 132, 121, 122, 106, 105, 95, 97, 104, 121, 120, 110, 137, 143, 136, 165, 171, 151, 147, 148, 129, 118, 118, 117, 117, 113, 114, 124, 145},
{308, 307, 316, 303, 304, 269, 270, 258, 254, 271, 264, 287, 315, 321, 300, 289, 260, 232, 247, 273, 279, 312, 323, 305, 270, 267, 248, 241, 252, 249, 304, 312, 298, 332, 354, 299, 293, 330, 330, 329, 361, 411, 385, 367, 352, 344, 276, 284, 305, 307, 308, 301, 298, 248, 241, 218, 250, 258, 312, 331, 334, 332, 359, 336, 325, 357, 352, 313, 296, 296, 252, 317, 368, 368, 359, 348, 277, 239, 236, 266, 292, 279, 264, 274, 255, 253, 294, 325, 314, 323, 300, 293, 282, 272, 274, 311, 293, 283, 293, 283},
{291, 289, 293, 292, 321, 332, 316, 317, 314, 355, 383, 387, 392, 400, 347, 268, 280, 271, 301, 314, 314, 328, 353, 334, 325, 333, 331, 303, 278, 260, 261, 220, 227, 212, 244, 247, 258, 261, 296, 285, 280, 310, 295, 296, 280, 286, 251, 264, 227, 249, 269, 265, 278, 285, 301, 316, 321, 325, 393, 402, 389, 415, 401, 363, 343, 328, 296, 299, 293, 279, 259, 285, 318, 296, 286, 294, 271, 246, 238, 254, 295, 287, 284, 306, 324, 306, 376, 384, 401, 403, 400, 357, 373, 337, 324, 341, 338, 303, 308, 285}}

// 18 Reading of the 8 sensors, 100 samples per sensor
{{259, 257, 237, 178, 178, 184, 211, 220, 228, 241, 219, 191, 203, 233, 239, 254, 274, 276, 279, 267, 254, 237, 209, 171, 179, 176, 185, 201, 219, 228, 236, 226, 229, 222, 213, 202, 209, 208, 216, 247, 282, 269, 290, 274, 242, 202, 231, 234, 242, 236, 240, 225, 170, 167, 167, 189, 188, 199, 191, 193, 174, 181, 174, 186, 200, 204, 184, 184, 182, 172, 161, 163, 165, 164, 154, 164, 163, 165, 170, 164, 159, 163, 177, 178, 178, 176, 167, 160, 130, 141, 128, 135, 126, 139, 158, 172, 173, 182, 183, 171},
{493, 459, 430, 379, 383, 328, 313, 299, 355, 341, 350, 391, 390, 353, 356, 344, 382, 446, 449, 435, 449, 408, 352, 347, 336, 326, 357, 343, 366, 379, 386, 362, 353, 343, 355, 336, 295, 322, 314, 339, 346, 373, 369, 382, 344, 333, 370, 399, 391, 381, 396, 323, 257, 277, 282, 317, 339, 359, 323, 324, 262, 260, 246, 221, 222, 236, 227, 239, 258, 271, 287, 266, 263, 269, 248, 243, 265, 273, 260, 250, 242, 245, 215, 228, 232, 219, 188, 209, 176, 173, 169, 174, 145, 158, 171, 194, 182, 199, 237, 242},
{166, 164, 154, 154, 160, 159, 147, 149, 145, 148, 166, 172, 157, 163, 158, 148, 159, 167, 169, 178, 169, 160, 151, 175, 152, 152, 161, 165, 129, 130, 141, 129, 127, 142, 148, 133, 133, 140, 129, 120, 123, 127, 130, 142, 141, 142, 137, 134, 130, 153, 162, 179, 199, 190, 180, 186, 167, 140, 146, 148, 134, 139, 130, 131, 120, 135, 121, 128, 130, 128, 98, 102, 100, 94, 98, 99, 100, 110, 116, 118, 119, 116, 103, 90, 79, 99, 106, 105, 111, 118, 114, 111, 116, 116, 105, 91, 88, 95, 91, 92},
{572, 615, 562, 524, 441, 469, 468, 441, 452, 476, 458, 405, 400, 457, 457, 467, 533, 590, 552, 584, 575, 503, 421, 405, 324, 364, 425, 445, 439, 443, 477, 475, 512, 514, 567, 518, 480, 444, 549, 524, 558, 619, 602, 550, 515, 472, 428, 485, 549, 598, 623, 634, 613, 538, 493, 459, 402, 420, 371, 436, 449, 461, 469, 479, 450, 438, 422, 391, 384, 461, 443, 472, 490, 516, 426, 429, 440, 443, 477, 492, 542, 498, 486, 432, 432, 373, 454, 426, 427, 594, 603, 602, 616, 649, 595, 598, 595, 599, 584, 484},
{402, 441, 421, 387, 380, 369, 328, 307, 327, 352, 368, 368, 368, 409, 404, 393, 480, 499, 476, 465, 460, 363, 337, 342, 306, 321, 336, 337, 297, 299, 351, 330, 327, 326, 382, 319, 359, 395, 418, 385, 411, 428, 397, 425, 406, 375, 375, 417, 436, 485, 514, 495, 476, 448, 418, 381, 351, 341, 276, 302, 322, 338, 348, 367, 348, 330, 300, 298, 302, 357, 359, 367, 359, 345, 328, 330, 352, 354, 393, 332, 383, 364, 345, 330, 345, 284, 318, 318, 299, 399, 404, 400, 412, 448, 440, 432, 429, 419, 385, 290},
{143, 149, 150, 143, 143, 140, 133, 130, 122, 137, 151, 163, 155, 166, 158, 153, 181, 185, 188, 186, 180, 133, 130, 116, 110, 107, 120, 120, 110, 113, 138, 133, 129, 133, 139, 113, 132, 152, 149, 144, 146, 136, 127, 142, 144, 143, 166, 170, 173, 182, 194, 171, 159, 159, 149, 132, 129, 132, 108, 121, 138, 139, 136, 135, 117, 108, 95, 100, 113, 122, 112, 114, 116, 107, 114, 111, 119, 113, 121, 101, 135, 135, 133, 128, 140, 118, 120, 120, 121, 151, 146, 142, 147, 151, 122, 123, 123, 116, 116, 104},
{237, 287, 290, 308, 325, 320, 284, 290, 284, 280, 319, 322, 320, 322, 350, 339, 370, 387, 417, 393, 394, 351, 354, 296, 292, 262, 270, 240, 233, 253, 262, 305, 304, 300, 285, 290, 234, 281, 366, 384, 373, 366, 334, 280, 259, 283, 311, 319, 320, 323, 327, 347, 371, 351, 340, 319, 264, 207, 241, 313, 361, 376, 396, 374, 330, 333, 322, 292, 310, 298, 256, 255, 298, 274, 278, 260, 278, 228, 212, 197, 193, 168, 195, 225, 232, 236, 237, 228, 206, 253, 265, 257, 259, 293, 257, 234, 245, 251, 240, 238},
{415, 415, 375, 391, 412, 329, 312, 342, 324, 336, 349, 379, 395, 410, 407, 426, 435, 413, 426, 406, 424, 390, 401, 353, 344, 295, 286, 356, 374, 372, 368, 410, 360, 358, 361, 365, 316, 316, 299, 296, 305, 288, 313, 330, 350, 330, 353, 337, 354, 374, 421, 405, 384, 358, 315, 276, 279, 274, 296, 312, 372, 382, 398, 407, 392, 387, 370, 341, 384, 381, 338, 359, 393, 316, 330, 324, 300, 266, 260, 267, 246, 295, 292, 296, 283, 278, 221, 249, 240, 246, 284, 297, 260, 294, 301, 275, 330, 341, 328, 329}}

// 19 Reading of the 8 sensors, 100 samples per sensor
{{275, 275, 247, 234, 224, 186, 197, 205, 193, 222, 236, 234, 246, 258, 236, 222, 200, 183, 178, 171, 175, 191, 182, 188, 199, 182, 167, 176, 166, 175, 222, 231, 240, 241, 236, 208, 210, 204, 214, 212, 219, 209, 206, 193, 201, 205, 214, 216, 217, 194, 179, 195, 200, 199, 209, 197, 190, 179, 173, 165, 168, 137, 145, 145, 166, 174, 179, 185, 188, 172, 166, 165, 148, 149, 161, 171, 166, 161, 160, 162, 162, 163, 175, 171, 159, 151, 160, 153, 162, 188, 180, 175, 170, 154, 137, 139, 135, 135, 143, 126},
{403, 407, 393, 387, 415, 381, 388, 377, 340, 347, 367, 342, 330, 386, 363, 339, 317, 313, 253, 237, 246, 252, 255, 230, 232, 201, 194, 211, 235, 240, 274, 287, 275, 257, 247, 239, 233, 228, 235, 222, 216, 223, 215, 207, 217, 225, 246, 252, 275, 276, 264, 259, 251, 232, 228, 226, 255, 255, 237, 241, 256, 184, 201, 207, 204, 199, 233, 225, 232, 227, 198, 152, 149, 149, 148, 173, 172, 161, 156, 157, 133, 141, 152, 150, 156, 172, 169, 153, 154, 165, 162, 164, 175, 178, 165, 151, 170, 166, 164, 160},
{209, 265, 292, 287, 307, 316, 264, 281, 274, 268, 270, 264, 212, 209, 165, 171, 169, 168, 170, 174, 151, 149, 163, 156, 143, 146, 159, 153, 143, 143, 171, 156, 144, 148, 150, 116, 118, 109, 122, 121, 123, 127, 132, 130, 132, 133, 164, 174, 168, 166, 170, 138, 129, 133, 139, 127, 126, 123, 116, 139, 153, 161, 158, 162, 137, 132, 140, 136, 129, 130, 129, 113, 115, 115, 106, 98, 103, 108, 110, 118, 114, 98, 103, 107, 100, 100, 104, 95, 122, 126, 130, 130, 134, 138, 141, 147, 155, 161, 135, 134},
{660, 546, 519, 448, 504, 470, 524, 618, 614, 600, 553, 504, 442, 447, 468, 474, 478, 434, 426, 500, 497, 588, 590, 628, 543, 587, 497, 527, 484, 521, 528, 535, 507, 566, 512, 476, 487, 517, 462, 487, 507, 503, 450, 435, 419, 399, 501, 556, 564, 560, 542, 436, 446, 464, 581, 626, 656, 604, 581, 487, 461, 477, 488, 538, 541, 558, 535, 539, 472, 467, 409, 386, 401, 415, 446, 468, 461, 461, 493, 503, 510, 521, 569, 563, 547, 534, 509, 424, 516, 489, 549, 588, 631, 574, 564, 520, 506, 521, 490, 482},
{470, 399, 386, 377, 391, 362, 397, 458, 425, 431, 405, 371, 337, 339, 334, 332, 349, 310, 300, 388, 377, 428, 423, 432, 375, 413, 358, 398, 397, 374, 366, 357, 320, 382, 368, 346, 358, 365, 313, 331, 342, 343, 339, 310, 310, 304, 326, 370, 414, 391, 392, 353, 354, 307, 401, 437, 476, 437, 437, 381, 359, 364, 367, 399, 405, 401, 384, 395, 357, 345, 336, 302, 281, 312, 317, 299, 288, 310, 284, 267, 267, 283, 307, 330, 381, 388, 383, 343, 377, 332, 329, 351, 364, 348, 336, 355, 331, 400, 362, 364},
{149, 128, 119, 138, 139, 139, 145, 169, 151, 151, 144, 133, 101, 96, 102, 99, 112, 109, 110, 127, 128, 129, 125, 127, 113, 115, 101, 123, 129, 128, 135, 138, 123, 142, 132, 124, 124, 130, 109, 123, 127, 131, 135, 130, 123, 136, 140, 150, 157, 154, 139, 129, 125, 121, 130, 141, 148, 133, 129, 129, 124, 129, 137, 146, 149, 162, 157, 155, 145, 137, 115, 107, 100, 113, 113, 112, 108, 112, 98, 94, 88, 95, 98, 106, 119, 125, 123, 118, 120, 116, 112, 121, 119, 126, 114, 117, 109, 125, 110, 115},
{289, 285, 275, 284, 264, 277, 280, 274, 267, 283, 272, 258, 262, 280, 264, 246, 261, 231, 215, 202, 252, 253, 245, 234, 240, 205, 200, 204, 268, 279, 274, 302, 325, 298, 306, 324, 289, 279, 258, 244, 214, 225, 239, 260, 263, 271, 263, 242, 236, 231, 229, 258, 269, 260, 254, 259, 287, 275, 291, 320, 327, 278, 303, 312, 330, 339, 335, 322, 315, 259, 232, 259, 273, 281, 303, 326, 306, 281, 244, 220, 179, 205, 195, 227, 231, 244, 231, 225, 237, 253, 241, 240, 260, 229, 223, 220, 211, 205, 238, 222},
{458, 458, 354, 329, 344, 348, 313, 356, 383, 384, 352, 352, 331, 313, 284, 291, 282, 258, 216, 206, 217, 208, 211, 209, 236, 263, 285, 286, 320, 358, 398, 395, 415, 428, 406, 362, 368, 344, 311, 309, 289, 290, 285, 259, 224, 236, 239, 264, 260, 256, 249, 298, 350, 356, 381, 391, 330, 276, 284, 255, 249, 256, 249, 236, 305, 295, 296, 327, 347, 289, 313, 324, 329, 332, 347, 329, 358, 310, 292, 317, 325, 298, 305, 299, 278, 294, 295, 312, 326, 343, 319, 321, 317, 312, 294, 296, 302, 280, 302, 292}}

// 20 Reading of the 8 sensors, 100 samples per sensor
{{213, 239, 245, 302, 303, 325, 298, 311, 258, 249, 227, 242, 229, 224, 227, 200, 176, 181, 202, 190, 197, 191, 207, 200, 209, 209, 206, 163, 169, 159, 190, 193, 206, 214, 228, 200, 202, 196, 172, 162, 171, 164, 172, 160, 189, 212, 211, 201, 204, 167, 128, 134, 159, 173, 193, 192, 191, 174, 172, 172, 164, 172, 167, 172, 159, 187, 185, 185, 176, 167, 160, 152, 156, 159, 161, 209, 229, 235, 235, 234, 192, 181, 169, 164, 177, 172, 187, 189, 184, 174, 181, 154, 223, 226, 224, 213, 213, 138, 155, 168},
{459, 451, 456, 406, 362, 404, 366, 339, 341, 314, 262, 237, 247, 227, 207, 172, 194, 203, 258, 283, 293, 262, 329, 321, 321, 323, 335, 264, 309, 292, 309, 332, 353, 369, 390, 370, 343, 327, 244, 206, 229, 232, 280, 297, 327, 339, 362, 314, 283, 279, 260, 225, 233, 226, 222, 219, 220, 226, 232, 285, 274, 265, 267, 291, 221, 280, 320, 319, 309, 316, 283, 241, 239, 264, 249, 275, 291, 294, 262, 256, 235, 215, 198, 193, 198, 208, 245, 257, 274, 264, 246, 208, 204, 170, 177, 176, 178, 171, 200, 214},
{200, 183, 179, 172, 185, 168, 171, 157, 162, 172, 159, 165, 168, 154, 147, 158, 146, 161, 171, 182, 186, 196, 186, 191, 164, 158, 139, 139, 118, 114, 122, 136, 138, 161, 166, 151, 151, 150, 141, 144, 151, 142, 153, 157, 159, 166, 162, 150, 152, 146, 127, 128, 134, 123, 135, 142, 155, 149, 152, 142, 142, 139, 138, 134, 153, 147, 135, 143, 151, 129, 131, 134, 143, 129, 132, 138, 132, 115, 115, 120, 111, 125, 126, 124, 128, 130, 125, 118, 113, 104, 112, 119, 123, 124, 119, 118, 115, 110, 112, 110},
{550, 589, 609, 683, 707, 653, 654, 611, 548, 555, 534, 484, 527, 527, 530, 567, 579, 577, 548, 481, 413, 442, 430, 504, 555, 550, 551, 524, 459, 381, 464, 436, 517, 561, 575, 555, 564, 571, 527, 537, 565, 570, 505, 536, 540, 501, 456, 443, 453, 420, 387, 409, 506, 506, 564, 642, 655, 623, 592, 533, 443, 438, 454, 461, 453, 444, 457, 423, 410, 481, 500, 464, 480, 475, 430, 424, 425, 425, 434, 428, 441, 577, 553, 641, 642, 650, 587, 585, 498, 515, 517, 464, 461, 439, 454, 442, 443, 457, 480, 446},
{395, 436, 433, 474, 479, 451, 417, 413, 391, 400, 375, 366, 380, 351, 367, 411, 414, 418, 419, 378, 319, 323, 300, 330, 390, 383, 397, 395, 371, 309, 372, 352, 398, 423, 421, 395, 388, 373, 336, 349, 360, 356, 331, 354, 366, 342, 349, 341, 340, 327, 313, 333, 355, 366, 354, 392, 398, 389, 369, 355, 319, 277, 323, 331, 344, 333, 376, 325, 341, 339, 354, 324, 386, 369, 382, 373, 373, 362, 348, 335, 343, 413, 368, 410, 413, 415, 385, 385, 346, 374, 395, 361, 368, 368, 342, 327, 340, 321, 329, 319},
{134, 145, 145, 159, 155, 149, 144, 145, 144, 150, 139, 129, 133, 120, 123, 135, 132, 131, 137, 123, 113, 115, 106, 112, 131, 126, 130, 131, 119, 100, 120, 121, 130, 134, 135, 122, 118, 124, 116, 127, 135, 144, 140, 151, 145, 137, 135, 121, 123, 116, 116, 116, 128, 122, 120, 121, 114, 98, 93, 93, 97, 98, 114, 117, 117, 114, 126, 116, 116, 117, 114, 93, 104, 104, 107, 108, 118, 124, 120, 118, 125, 138, 127, 129, 137, 134, 136, 139, 134, 138, 148, 127, 132, 136, 132, 126, 131, 119, 115, 106},
{291, 320, 318, 317, 292, 253, 260, 302, 308, 315, 315, 282, 228, 249, 281, 335, 354, 374, 355, 344, 304, 358, 357, 391, 375, 362, 304, 290, 239, 265, 278, 264, 266, 259, 301, 284, 287, 304, 328, 307, 321, 354, 342, 329, 363, 354, 351, 365, 365, 325, 325, 384, 372, 372, 378, 376, 303, 284, 319, 328, 333, 330, 339, 294, 272, 297, 284, 294, 309, 301, 265, 308, 299, 305, 289, 295, 261, 254, 265, 260, 284, 257, 243, 217, 219, 210, 230, 252, 270, 292, 284, 275, 275, 315, 306, 310, 310, 323, 268, 261},
{246, 276, 280, 294, 300, 245, 250, 330, 321, 337, 394, 376, 331, 349, 434, 420, 471, 460, 464, 395, 369, 324, 369, 425, 406, 420, 392, 336, 276, 276, 325, 349, 354, 325, 339, 289, 277, 287, 297, 381, 369, 384, 385, 384, 379, 397, 399, 421, 412, 355, 334, 361, 388, 416, 401, 394, 359, 313, 315, 320, 326, 316, 338, 312, 311, 330, 324, 298, 280, 280, 288, 355, 362, 367, 349, 331, 281, 271, 279, 289, 333, 307, 307, 306, 335, 286, 319, 361, 369, 351, 360, 334, 286, 322, 315, 304, 303, 335, 272, 277}}

// 21 Reading of the 8 sensors, 100 samples per sensor
{{287, 274, 308, 374, 367, 358, 367, 331, 253, 254, 263, 251, 247, 274, 294, 282, 280, 297, 261, 240, 251, 261, 240, 245, 236, 217, 243, 254, 292, 297, 300, 260, 258, 213, 200, 196, 186, 180, 176, 186, 200, 216, 204, 203, 191, 198, 204, 238, 257, 283, 276, 279, 266, 256, 236, 251, 244, 252, 249, 243, 218, 207, 181, 188, 213, 221, 210, 218, 261, 252, 253, 254, 250, 216, 208, 210, 228, 230, 228, 287, 283, 284, 287, 284, 237, 262, 254, 245, 242, 242, 205, 225, 216, 212, 202, 229, 209, 213, 205, 231},
{457, 395, 449, 496, 506, 462, 455, 438, 386, 386, 384, 388, 338, 388, 384, 404, 430, 460, 435, 423, 386, 388, 366, 353, 349, 351, 359, 374, 361, 356, 361, 327, 270, 290, 284, 281, 234, 249, 273, 291, 314, 367, 383, 344, 354, 332, 278, 239, 253, 221, 224, 291, 298, 296, 331, 337, 286, 304, 320, 304, 311, 330, 322, 309, 284, 309, 298, 286, 283, 291, 270, 256, 272, 319, 306, 283, 292, 293, 255, 359, 363, 400, 406, 405, 346, 355, 312, 296, 298, 281, 303, 323, 314, 314, 334, 299, 292, 290, 282, 273},
{162, 158, 167, 178, 177, 183, 191, 195, 178, 180, 179, 155, 137, 144, 136, 127, 129, 140, 152, 150, 140, 135, 124, 106, 105, 120, 130, 145, 139, 143, 154, 145, 131, 131, 123, 107, 106, 121, 121, 124, 121, 127, 114, 115, 121, 127, 121, 116, 113, 122, 139, 139, 138, 140, 132, 103, 97, 116, 115, 152, 160, 162, 158, 172, 143, 136, 138, 126, 102, 93, 102, 97, 105, 120, 123, 118, 123, 121, 107, 113, 107, 99, 95, 94, 91, 109, 117, 137, 140, 138, 131, 127, 118, 119, 119, 111, 106, 94, 88, 81},
{513, 494, 502, 566, 531, 639, 637, 641, 620, 659, 609, 554, 544, 482, 409, 440, 478, 512, 534, 550, 475, 457, 422, 456, 452, 447, 433, 535, 551, 574, 624, 655, 599, 579, 556, 543, 530, 548, 518, 523, 481, 495, 500, 557, 576, 679, 682, 644, 582, 603, 594, 610, 601, 646, 611, 577, 528, 603, 565, 626, 593, 609, 545, 574, 530, 495, 464, 440, 460, 418, 476, 474, 536, 531, 573, 533, 580, 565, 546, 493, 484, 482, 444, 449, 453, 505, 541, 629, 625, 731, 719, 673, 602, 600, 456, 403, 380, 367, 399, 412},
{370, 361, 394, 403, 418, 480, 466, 458, 478, 481, 488, 468, 483, 453, 406, 369, 366, 355, 354, 376, 352, 348, 331, 366, 360, 343, 352, 410, 397, 419, 458, 465, 438, 430, 391, 363, 379, 363, 345, 355, 341, 308, 367, 404, 433, 551, 561, 513, 491, 486, 396, 399, 409, 418, 389, 428, 427, 492, 482, 518, 469, 487, 428, 449, 445, 416, 376, 351, 363, 338, 354, 318, 364, 364, 401, 404, 444, 455, 429, 374, 374, 379, 334, 362, 366, 414, 390, 452, 430, 504, 469, 474, 406, 413, 320, 307, 310, 344, 359, 349},
{133, 133, 141, 153, 166, 181, 184, 186, 190, 191, 193, 175, 171, 161, 140, 130, 129, 126, 123, 122, 106, 101, 104, 125, 132, 133, 142, 149, 138, 151, 158, 158, 157, 156, 137, 131, 129, 120, 110, 110, 100, 96, 110, 126, 133, 185, 198, 193, 185, 188, 159, 158, 153, 160, 162, 158, 151, 198, 190, 192, 183, 189, 146, 149, 143, 140, 127, 114, 116, 119, 140, 132, 138, 142, 145, 132, 143, 152, 144, 129, 128, 139, 124, 132, 139, 152, 139, 157, 160, 175, 166, 163, 150, 146, 117, 117, 126, 134, 142, 148},
{466, 517, 520, 505, 439, 409, 356, 376, 356, 410, 434, 422, 408, 433, 447, 397, 411, 403, 387, 292, 300, 330, 336, 333, 377, 376, 340, 323, 330, 313, 313, 344, 365, 365, 386, 384, 360, 344, 343, 342, 329, 326, 327, 315, 266, 311, 310, 346, 427, 442, 415, 420, 388, 311, 308, 301, 275, 313, 329, 311, 312, 321, 296, 331, 320, 330, 322, 323, 312, 406, 402, 401, 391, 357, 276, 282, 333, 333, 323, 316, 332, 282, 277, 343, 327, 346, 380, 385, 340, 376, 368, 377, 371, 376, 346, 310, 300, 334, 339, 392},
{537, 580, 574, 574, 470, 446, 361, 393, 379, 446, 472, 451, 409, 423, 413, 376, 399, 406, 395, 329, 321, 341, 306, 301, 313, 320, 296, 318, 365, 372, 363, 382, 396, 352, 342, 358, 421, 388, 419, 438, 429, 346, 356, 337, 333, 353, 340, 360, 391, 409, 410, 421, 397, 372, 349, 336, 315, 397, 387, 376, 369, 355, 271, 424, 409, 415, 421, 416, 387, 422, 437, 463, 470, 363, 385, 369, 349, 345, 359, 326, 306, 324, 338, 371, 374, 444, 454, 452, 435, 437, 416, 471, 463, 459, 428, 396, 287, 281, 253, 298}}

// 22 Reading of the 8 sensors, 100 samples per sensor
{{349, 349, 338, 280, 274, 277, 258, 275, 273, 255, 248, 245, 197, 244, 292, 298, 319, 320, 289, 265, 249, 255, 265, 258, 231, 245, 238, 238, 229, 236, 249, 231, 206, 221, 204, 195, 213, 251, 272, 273, 253, 260, 240, 216, 209, 210, 200, 202, 221, 230, 237, 225, 207, 168, 155, 141, 141, 177, 196, 193, 192, 218, 200, 185, 208, 228, 191, 194, 212, 216, 198, 234, 267, 260, 251, 255, 235, 224, 225, 225, 243, 242, 232, 290, 287, 270, 259, 251, 193, 189, 188, 203, 201, 188, 190, 182, 187, 218, 226, 285},
{434, 428, 437, 431, 459, 413, 422, 467, 466, 486, 539, 529, 450, 527, 513, 461, 487, 475, 392, 359, 354, 322, 313, 304, 297, 292, 277, 291, 293, 313, 348, 363, 351, 370, 349, 318, 307, 310, 317, 308, 314, 358, 342, 315, 307, 284, 242, 249, 255, 283, 306, 290, 294, 273, 249, 223, 253, 252, 284, 273, 266, 257, 273, 235, 251, 268, 264, 246, 256, 278, 293, 282, 277, 271, 247, 267, 294, 281, 313, 303, 280, 272, 328, 337, 370, 389, 381, 351, 321, 290, 233, 218, 262, 260, 261, 263, 284, 242, 268, 344},
{289, 269, 275, 224, 204, 196, 183, 184, 183, 208, 209, 208, 222, 241, 224, 234, 228, 213, 171, 161, 149, 148, 151, 160, 162, 156, 163, 161, 168, 176, 172, 184, 180, 167, 154, 153, 148, 137, 150, 154, 152, 164, 164, 160, 171, 164, 140, 142, 142, 134, 134, 121, 126, 131, 172, 177, 195, 204, 218, 186, 182, 171, 165, 130, 133, 160, 154, 157, 167, 165, 164, 185, 179, 168, 166, 143, 112, 170, 184, 181, 183, 192, 142, 162, 178, 183, 185, 202, 193, 199, 189, 178, 156, 140, 111, 117, 120, 123, 107, 100},
{630, 611, 606, 595, 541, 553, 556, 562, 457, 599, 549, 573, 596, 612, 494, 525, 497, 548, 539, 613, 608, 636, 588, 572, 508, 528, 499, 458, 459, 459, 452, 499, 503, 527, 583, 610, 610, 608, 602, 565, 601, 620, 616, 653, 652, 566, 507, 516, 450, 402, 398, 474, 494, 556, 579, 617, 599, 616, 618, 605, 558, 513, 523, 446, 493, 561, 648, 634, 694, 686, 656, 559, 561, 542, 514, 544, 535, 634, 618, 606, 638, 673, 566, 636, 681, 652, 720, 730, 698, 735, 779, 705, 680, 675, 613, 534, 519, 551, 514, 534},
{426, 410, 394, 386, 365, 357, 363, 374, 294, 352, 346, 359, 369, 380, 341, 357, 344, 358, 357, 374, 379, 399, 381, 369, 358, 386, 380, 384, 408, 434, 430, 452, 453, 443, 446, 453, 463, 442, 464, 438, 475, 461, 471, 456, 479, 399, 405, 384, 376, 318, 327, 366, 385, 397, 401, 416, 359, 381, 391, 381, 368, 371, 382, 344, 370, 398, 431, 444, 459, 461, 428, 364, 348, 329, 317, 344, 344, 403, 418, 403, 449, 486, 415, 470, 507, 462, 473, 487, 447, 476, 519, 493, 474, 475, 417, 353, 354, 382, 366, 371},
{156, 159, 158, 151, 144, 144, 142, 144, 124, 138, 133, 124, 127, 131, 109, 116, 125, 133, 133, 148, 140, 137, 131, 135, 122, 147, 145, 144, 143, 148, 145, 163, 158, 157, 158, 154, 145, 139, 140, 135, 142, 148, 148, 159, 167, 147, 140, 139, 138, 118, 120, 139, 140, 152, 160, 164, 148, 164, 155, 147, 149, 162, 168, 164, 170, 170, 157, 158, 153, 154, 150, 145, 126, 129, 129, 147, 148, 176, 173, 166, 166, 171, 137, 174, 183, 169, 176, 183, 158, 182, 187, 175, 168, 170, 131, 123, 149, 158, 146, 154},
{324, 334, 320, 348, 328, 317, 311, 330, 311, 321, 363, 366, 399, 398, 389, 400, 400, 356, 357, 351, 315, 294, 316, 301, 331, 309, 307, 292, 353, 331, 363, 379, 367, 332, 373, 343, 346, 339, 316, 269, 267, 269, 310, 305, 297, 308, 296, 249, 319, 336, 328, 346, 370, 370, 366, 381, 357, 352, 344, 362, 364, 377, 381, 367, 365, 379, 368, 358, 340, 330, 289, 305, 350, 333, 350, 367, 366, 311, 319, 274, 279, 272, 297, 321, 324, 321, 344, 356, 401, 405, 392, 374, 352, 297, 282, 311, 420, 466, 476, 482},
{386, 384, 352, 302, 310, 298, 300, 296, 309, 284, 323, 298, 295, 299, 369, 434, 482, 480, 510, 480, 409, 395, 422, 371, 380, 395, 377, 403, 440, 424, 459, 440, 396, 374, 406, 342, 354, 373, 357, 330, 344, 339, 308, 303, 287, 264, 251, 261, 260, 271, 298, 340, 324, 359, 351, 329, 290, 349, 382, 423, 421, 493, 468, 448, 435, 474, 418, 397, 366, 347, 302, 304, 341, 345, 334, 347, 345, 322, 316, 316, 337, 350, 350, 442, 432, 397, 422, 478, 495, 497, 507, 501, 455, 365, 353, 331, 324, 366, 390, 409}}

// 23 Reading of the 8 sensors, 100 samples per sensor
{{268, 272, 335, 362, 359, 354, 408, 353, 326, 309, 300, 253, 263, 248, 258, 281, 268, 256, 255, 247, 214, 192, 201, 202, 203, 258, 327, 348, 366, 368, 332, 254, 222, 216, 229, 250, 247, 245, 241, 230, 245, 239, 230, 209, 232, 191, 215, 215, 233, 220, 220, 218, 226, 234, 217, 214, 199, 201, 217, 219, 237, 232, 280, 269, 272, 277, 292, 244, 214, 217, 203, 197, 212, 214, 226, 229, 224, 203, 258, 233, 236, 237, 233, 177, 188, 187, 222, 229, 235, 241, 240, 194, 185, 186, 182, 161, 179, 189, 171, 154},
{464, 464, 479, 509, 495, 483, 501, 463, 418, 452, 471, 476, 503, 509, 468, 450, 353, 311, 273, 271, 295, 310, 298, 319, 334, 356, 416, 450, 451, 454, 426, 361, 341, 347, 327, 321, 328, 325, 334, 336, 381, 396, 371, 335, 342, 285, 260, 255, 275, 274, 297, 311, 316, 328, 334, 303, 320, 334, 355, 339, 366, 342, 351, 320, 335, 317, 318, 310, 295, 277, 311, 314, 302, 324, 315, 291, 302, 302, 312, 319, 298, 272, 266, 254, 289, 305, 329, 344, 337, 303, 305, 286, 262, 287, 318, 319, 310, 311, 263, 204},
{210, 206, 204, 244, 236, 237, 260, 252, 224, 217, 206, 191, 184, 162, 216, 218, 210, 246, 256, 222, 215, 206, 164, 154, 144, 152, 164, 178, 192, 214, 219, 217, 219, 216, 189, 178, 169, 150, 135, 124, 129, 135, 133, 124, 123, 141, 139, 151, 161, 169, 182, 187, 177, 178, 183, 150, 146, 156, 163, 166, 166, 163, 165, 169, 162, 161, 163, 158, 132, 118, 112, 116, 118, 126, 122, 124, 118, 129, 118, 123, 120, 121, 99, 117, 126, 132, 143, 151, 148, 150, 160, 148, 149, 144, 136, 138, 130, 118, 113, 112},
{510, 513, 434, 451, 480, 456, 526, 573, 554, 531, 522, 528, 523, 514, 571, 572, 495, 480, 521, 455, 451, 541, 527, 499, 502, 552, 542, 555, 581, 619, 596, 574, 671, 627, 591, 676, 655, 535, 539, 511, 394, 404, 439, 456, 494, 477, 465, 466, 616, 609, 602, 585, 580, 452, 460, 461, 507, 581, 544, 501, 518, 517, 470, 545, 542, 623, 585, 536, 528, 541, 466, 485, 499, 423, 508, 536, 552, 550, 597, 539, 483, 476, 492, 428, 466, 470, 490, 463, 488, 436, 444, 452, 477, 465, 502, 514, 472, 462, 484, 430},
{393, 393, 344, 365, 350, 340, 396, 430, 409, 405, 404, 383, 367, 376, 400, 400, 361, 341, 328, 306, 283, 324, 322, 351, 341, 360, 368, 373, 352, 388, 394, 379, 438, 428, 405, 434, 437, 373, 378, 359, 314, 289, 317, 312, 345, 342, 368, 366, 449, 453, 444, 423, 396, 305, 322, 321, 316, 380, 379, 323, 330, 350, 320, 351, 353, 365, 333, 303, 336, 366, 378, 395, 409, 336, 388, 404, 403, 390, 431, 357, 308, 311, 330, 286, 320, 316, 337, 316, 341, 317, 342, 330, 337, 316, 324, 300, 282, 315, 322, 294},
{137, 134, 122, 131, 118, 119, 132, 145, 140, 135, 147, 149, 139, 146, 173, 155, 148, 154, 147, 123, 144, 141, 140, 147, 146, 130, 134, 128, 118, 130, 129, 124, 137, 142, 130, 160, 166, 154, 150, 153, 126, 126, 146, 153, 153, 157, 157, 145, 158, 153, 141, 139, 139, 116, 125, 132, 127, 136, 133, 125, 118, 117, 115, 139, 134, 137, 136, 122, 102, 110, 115, 129, 138, 131, 154, 159, 148, 136, 154, 127, 124, 139, 140, 128, 156, 152, 147, 146, 147, 121, 120, 116, 116, 109, 130, 128, 120, 129, 130, 106},
{315, 299, 277, 288, 304, 269, 274, 275, 275, 287, 298, 327, 322, 345, 323, 316, 329, 348, 340, 330, 369, 362, 374, 366, 396, 421, 390, 373, 390, 347, 251, 347, 351, 324, 348, 420, 373, 357, 360, 374, 306, 268, 266, 294, 271, 286, 326, 321, 292, 284, 301, 300, 306, 300, 287, 274, 273, 297, 372, 407, 417, 405, 423, 377, 353, 338, 347, 329, 302, 331, 312, 321, 313, 321, 303, 308, 278, 262, 263, 269, 273, 339, 326, 327, 328, 374, 315, 337, 333, 326, 278, 287, 295, 299, 285, 279, 278, 278, 293, 300},
{374, 381, 406, 431, 388, 372, 389, 329, 303, 316, 293, 333, 336, 350, 333, 341, 271, 307, 316, 332, 378, 396, 442, 426, 438, 429, 441, 387, 406, 378, 327, 379, 366, 361, 371, 465, 428, 427, 412, 453, 418, 382, 368, 411, 406, 361, 441, 468, 428, 429, 418, 361, 334, 351, 298, 358, 380, 396, 447, 501, 478, 474, 472, 413, 365, 346, 315, 309, 286, 271, 288, 367, 354, 383, 441, 443, 383, 383, 375, 331, 322, 393, 397, 415, 405, 419, 423, 418, 386, 393, 377, 296, 333, 333, 339, 320, 316, 274, 294, 277}}

// 24 Reading of the 8 sensors, 100 samples per sensor
{{157, 188, 218, 223, 227, 219, 223, 208, 204, 228, 283, 283, 287, 286, 275, 243, 251, 235, 250, 262, 283, 261, 272, 252, 228, 172, 148, 115, 132, 133, 134, 163, 167, 182, 186, 202, 201, 244, 232, 241, 236, 230, 185, 209, 198, 197, 185, 186, 159, 165, 170, 169, 161, 164, 171, 196, 195, 202, 191, 173, 135, 152, 152, 157, 160, 152, 162, 164, 165, 171, 178, 158, 169, 207, 212, 217, 232, 247, 213, 210, 208, 196, 161, 152, 154, 154, 154, 164, 182, 191, 177, 185, 191, 180, 165, 200, 192, 206, 201, 200},
{287, 307, 255, 262, 253, 276, 287, 313, 338, 361, 366, 345, 321, 285, 252, 270, 294, 283, 325, 347, 343, 345, 376, 343, 338, 315, 288, 245, 243, 226, 197, 208, 219, 242, 225, 270, 260, 282, 273, 284, 262, 310, 273, 294, 293, 295, 255, 273, 246, 241, 236, 271, 250, 276, 280, 334, 290, 292, 274, 270, 199, 230, 254, 245, 261, 290, 323, 309, 318, 307, 292, 234, 233, 298, 315, 290, 305, 325, 247, 236, 245, 223, 206, 211, 187, 219, 255, 256, 270, 286, 259, 228, 214, 217, 215, 233, 231, 271, 244, 229},
{189, 192, 154, 146, 154, 154, 141, 133, 139, 131, 135, 135, 166, 163, 170, 151, 158, 130, 128, 149, 145, 149, 156, 158, 136, 146, 180, 277, 323, 328, 345, 328, 246, 185, 183, 154, 213, 227, 243, 258, 266, 313, 369, 368, 358, 353, 281, 209, 192, 200, 224, 229, 228, 232, 220, 191, 179, 182, 214, 213, 210, 206, 190, 153, 170, 179, 176, 179, 175, 156, 152, 157, 161, 149, 145, 150, 149, 127, 131, 153, 160, 150, 151, 183, 163, 141, 146, 145, 115, 118, 119, 129, 134, 127, 151, 163, 157, 164, 160, 148},
{467, 426, 421, 455, 499, 432, 435, 466, 449, 392, 418, 431, 425, 532, 559, 577, 577, 555, 479, 499, 457, 473, 489, 509, 489, 492, 495, 485, 437, 476, 473, 445, 430, 431, 388, 462, 507, 577, 604, 613, 563, 629, 625, 606, 584, 590, 517, 471, 501, 497, 505, 455, 440, 484, 495, 491, 511, 525, 477, 462, 413, 397, 396, 377, 371, 358, 393, 395, 368, 379, 417, 372, 319, 352, 370, 406, 410, 439, 441, 411, 408, 419, 444, 467, 482, 518, 512, 513, 505, 517, 429, 425, 461, 423, 397, 409, 400, 286, 283, 328},
{440, 407, 395, 401, 427, 359, 342, 329, 322, 292, 285, 296, 306, 382, 382, 380, 371, 356, 303, 342, 346, 360, 372, 378, 367, 372, 361, 358, 335, 325, 317, 321, 310, 306, 276, 317, 343, 375, 401, 431, 404, 406, 407, 404, 381, 373, 394, 392, 397, 391, 403, 346, 309, 321, 319, 312, 317, 374, 354, 352, 345, 359, 307, 292, 295, 262, 266, 288, 273, 298, 321, 299, 259, 285, 264, 254, 260, 276, 277, 280, 282, 296, 299, 308, 305, 356, 348, 375, 386, 389, 336, 328, 345, 311, 341, 331, 340, 270, 263, 236},
{143, 131, 126, 126, 132, 118, 115, 110, 110, 106, 111, 108, 116, 139, 137, 140, 136, 134, 121, 132, 130, 133, 134, 127, 126, 130, 137, 140, 136, 133, 128, 124, 112, 112, 101, 109, 115, 132, 149, 167, 169, 166, 164, 156, 138, 119, 135, 136, 139, 136, 149, 133, 117, 120, 120, 104, 100, 118, 109, 110, 118, 135, 128, 124, 124, 113, 88, 91, 88, 103, 105, 108, 99, 104, 92, 107, 107, 107, 101, 110, 105, 105, 105, 126, 115, 113, 116, 126, 115, 116, 115, 114, 120, 121, 142, 137, 132, 113, 100, 78},
{240, 244, 277, 267, 287, 322, 341, 318, 305, 304, 275, 248, 256, 312, 301, 330, 343, 349, 327, 321, 296, 318, 323, 309, 331, 323, 321, 301, 324, 317, 320, 282, 315, 302, 306, 302, 303, 279, 277, 297, 326, 346, 345, 352, 336, 293, 289, 289, 271, 234, 311, 302, 299, 338, 376, 321, 305, 295, 245, 191, 234, 256, 281, 311, 323, 286, 274, 293, 288, 314, 319, 316, 351, 354, 317, 314, 327, 292, 267, 300, 310, 299, 281, 287, 261, 264, 257, 234, 230, 266, 259, 283, 288, 330, 311, 322, 313, 313, 248, 236},
{331, 330, 332, 318, 310, 277, 299, 301, 266, 268, 264, 273, 265, 297, 357, 359, 339, 345, 377, 318, 310, 324, 324, 266, 263, 253, 277, 267, 272, 273, 289, 237, 252, 279, 297, 295, 303, 306, 275, 268, 267, 292, 283, 325, 346, 363, 346, 339, 308, 263, 283, 270, 277, 280, 277, 216, 211, 218, 197, 198, 225, 239, 240, 235, 245, 223, 207, 227, 245, 243, 246, 259, 302, 314, 323, 319, 322, 339, 326, 330, 351, 359, 317, 317, 314, 306, 291, 256, 261, 297, 288, 319, 341, 336, 286, 296, 253, 259, 254, 259}}

// 25 Reading of the 8 sensors, 100 samples per sensor
{{204, 209, 220, 269, 253, 275, 290, 293, 270, 277, 263, 243, 251, 253, 249, 244, 277, 296, 280, 288, 276, 265, 226, 206, 222, 258, 236, 233, 260, 219, 184, 184, 187, 167, 174, 218, 215, 227, 252, 264, 251, 262, 315, 326, 324, 313, 326, 278, 264, 279, 265, 243, 235, 209, 177, 222, 232, 258, 246, 249, 223, 216, 195, 203, 201, 224, 237, 250, 257, 260, 250, 230, 220, 212, 208, 194, 186, 170, 181, 176, 178, 220, 216, 224, 239, 226, 201, 197, 182, 168, 169, 165, 163, 158, 167, 186, 194, 191, 195, 185},
{318, 307, 327, 338, 316, 328, 344, 337, 300, 330, 309, 282, 288, 297, 338, 361, 382, 403, 434, 399, 402, 385, 357, 313, 288, 261, 264, 274, 302, 301, 301, 305, 306, 268, 320, 326, 348, 333, 348, 330, 308, 288, 306, 293, 277, 308, 321, 325, 343, 322, 296, 274, 250, 243, 264, 291, 295, 308, 285, 317, 308, 314, 299, 340, 289, 278, 311, 315, 280, 298, 334, 295, 337, 341, 328, 303, 295, 239, 226, 253, 234, 244, 250, 255, 261, 265, 272, 257, 244, 228, 220, 199, 229, 229, 244, 245, 260, 226, 236, 203},
{140, 127, 124, 143, 137, 136, 168, 176, 166, 172, 177, 164, 161, 158, 145, 130, 132, 128, 156, 195, 208, 199, 203, 187, 148, 146, 157, 148, 143, 169, 158, 165, 174, 181, 165, 182, 175, 188, 191, 188, 191, 191, 179, 166, 187, 187, 183, 172, 191, 168, 154, 177, 177, 165, 176, 172, 190, 211, 218, 208, 211, 199, 190, 184, 183, 184, 197, 187, 175, 190, 196, 187, 188, 197, 191, 188, 149, 160, 155, 144, 132, 163, 156, 156, 177, 198, 182, 175, 169, 149, 141, 149, 167, 168, 165, 147, 151, 124, 123, 144},
{485, 442, 450, 518, 537, 650, 689, 643, 612, 595, 455, 384, 407, 408, 458, 494, 554, 560, 558, 512, 490, 546, 534, 540, 570, 603, 567, 591, 575, 566, 583, 676, 717, 777, 793, 797, 672, 725, 687, 646, 622, 656, 544, 572, 602, 565, 542, 545, 521, 508, 532, 523, 615, 616, 603, 577, 615, 535, 576, 640, 642, 621, 652, 594, 551, 558, 653, 605, 591, 549, 646, 518, 568, 584, 626, 535, 544, 497, 484, 421, 402, 449, 460, 456, 503, 533, 565, 551, 550, 546, 583, 575, 546, 528, 548, 458, 404, 414, 448, 494},
{373, 348, 338, 379, 361, 443, 472, 464, 441, 450, 363, 314, 326, 338, 333, 363, 421, 439, 430, 404, 387, 359, 324, 371, 381, 397, 412, 413, 373, 406, 461, 496, 564, 608, 597, 575, 514, 517, 500, 478, 435, 446, 354, 345, 362, 370, 359, 370, 389, 424, 399, 402, 415, 390, 330, 369, 386, 378, 372, 417, 391, 382, 383, 387, 383, 422, 504, 493, 472, 436, 459, 348, 387, 382, 407, 354, 376, 336, 340, 312, 326, 356, 394, 402, 424, 408, 440, 410, 400, 416, 446, 418, 400, 389, 380, 326, 290, 296, 309, 315},
{116, 103, 100, 111, 120, 141, 155, 151, 143, 144, 125, 109, 115, 122, 125, 129, 145, 143, 143, 130, 145, 139, 136, 153, 156, 149, 142, 144, 126, 134, 155, 168, 190, 207, 201, 191, 180, 183, 179, 177, 167, 170, 153, 158, 159, 165, 160, 157, 149, 147, 133, 143, 146, 138, 131, 139, 128, 122, 117, 137, 129, 130, 134, 133, 130, 139, 160, 159, 161, 147, 158, 135, 139, 129, 137, 121, 131, 121, 127, 124, 128, 122, 133, 139, 140, 137, 153, 145, 132, 133, 143, 140, 132, 140, 133, 117, 109, 108, 98, 116},
{362, 310, 335, 319, 306, 310, 314, 276, 276, 281, 262, 277, 280, 283, 312, 310, 348, 359, 373, 366, 392, 375, 367, 339, 339, 375, 342, 352, 378, 435, 385, 416, 422, 408, 329, 382, 364, 441, 477, 490, 450, 468, 423, 493, 516, 530, 544, 517, 463, 428, 412, 407, 437, 410, 406, 393, 358, 336, 323, 332, 340, 341, 379, 360, 344, 398, 373, 305, 315, 325, 285, 309, 309, 290, 352, 362, 355, 386, 417, 364, 329, 322, 290, 284, 285, 273, 301, 297, 293, 283, 310, 372, 440, 419, 422, 424, 348, 272, 270, 259},
{386, 403, 416, 434, 389, 375, 337, 301, 272, 292, 296, 301, 315, 307, 326, 322, 346, 397, 391, 384, 384, 399, 349, 352, 343, 356, 310, 331, 421, 447, 421, 540, 546, 502, 464, 579, 483, 501, 502, 515, 427, 426, 459, 567, 563, 568, 580, 515, 386, 438, 424, 451, 493, 525, 508, 480, 479, 442, 360, 312, 335, 297, 361, 386, 415, 484, 472, 454, 502, 507, 453, 445, 421, 368, 351, 354, 346, 356, 339, 313, 309, 362, 376, 383, 391, 360, 395, 355, 364, 389, 402, 382, 398, 373, 336, 358, 291, 281, 293, 296}}

// 26 Reading of the 8 sensors, 100 samples per sensor
{{219, 218, 210, 240, 226, 246, 245, 248, 207, 206, 188, 248, 243, 268, 283, 305, 267, 282, 303, 303, 285, 300, 304, 267, 268, 269, 246, 212, 234, 223, 207, 193, 205, 185, 191, 211, 215, 251, 235, 256, 246, 287, 270, 289, 291, 294, 264, 245, 232, 220, 239, 260, 301, 300, 317, 320, 331, 326, 351, 341, 345, 337, 317, 288, 268, 232, 210, 212, 224, 222, 243, 265, 256, 275, 276, 260, 224, 203, 177, 196, 236, 246, 249, 243, 264, 231, 225, 291, 329, 302, 312, 324, 286, 239, 235, 213, 189, 173, 236, 238},
{383, 397, 349, 356, 342, 361, 341, 371, 382, 387, 411, 433, 420, 386, 377, 406, 391, 402, 446, 466, 397, 426, 476, 436, 421, 425, 381, 290, 312, 344, 379, 388, 396, 387, 370, 319, 282, 286, 267, 296, 317, 365, 390, 386, 419, 422, 401, 362, 370, 298, 293, 285, 299, 286, 371, 402, 418, 454, 474, 423, 427, 405, 370, 343, 310, 267, 297, 278, 284, 298, 339, 330, 340, 354, 344, 298, 309, 285, 314, 328, 343, 345, 340, 294, 282, 267, 219, 246, 254, 278, 286, 294, 287, 299, 279, 261, 268, 267, 257, 257},
{131, 133, 142, 161, 175, 180, 172, 203, 207, 206, 198, 222, 192, 159, 164, 176, 154, 161, 175, 166, 163, 173, 171, 156, 149, 136, 125, 121, 138, 138, 139, 138, 135, 128, 140, 148, 152, 146, 141, 156, 157, 147, 166, 195, 174, 178, 193, 182, 153, 157, 150, 131, 154, 156, 169, 163, 188, 184, 191, 186, 188, 175, 162, 160, 146, 176, 164, 165, 166, 173, 164, 173, 194, 215, 210, 212, 212, 191, 160, 175, 187, 180, 181, 197, 190, 158, 171, 181, 197, 220, 224, 217, 215, 180, 159, 144, 141, 126, 150, 138},
{612, 644, 635, 564, 642, 598, 540, 572, 580, 563, 607, 636, 595, 571, 518, 568, 551, 655, 643, 734, 728, 765, 671, 735, 628, 569, 516, 559, 599, 622, 654, 687, 681, 597, 592, 525, 501, 500, 471, 516, 600, 578, 615, 636, 608, 569, 601, 545, 517, 549, 688, 685, 715, 712, 685, 592, 581, 638, 694, 693, 623, 617, 521, 587, 595, 675, 687, 734, 678, 676, 799, 810, 794, 768, 807, 660, 682, 791, 816, 805, 794, 796, 702, 736, 752, 722, 679, 690, 682, 715, 812, 845, 808, 781, 686, 606, 523, 481, 479, 597},
{395, 423, 431, 374, 451, 448, 405, 447, 439, 402, 428, 448, 404, 409, 383, 370, 370, 398, 368, 401, 440, 466, 429, 471, 438, 388, 360, 399, 426, 429, 452, 470, 441, 407, 394, 357, 341, 366, 352, 380, 454, 433, 436, 443, 442, 384, 436, 421, 397, 397, 542, 543, 555, 581, 587, 496, 495, 496, 523, 523, 486, 454, 445, 422, 399, 471, 454, 520, 483, 483, 518, 559, 517, 528, 564, 501, 487, 537, 570, 582, 561, 555, 513, 524, 496, 493, 477, 476, 451, 461, 541, 579, 570, 542, 521, 432, 384, 336, 354, 375},
{146, 150, 159, 133, 149, 143, 134, 138, 137, 136, 143, 142, 133, 128, 123, 126, 132, 136, 133, 132, 139, 148, 142, 156, 151, 136, 115, 132, 148, 153, 161, 173, 162, 142, 133, 127, 116, 119, 124, 135, 149, 151, 149, 144, 141, 132, 143, 147, 141, 145, 206, 211, 216, 227, 231, 181, 174, 181, 183, 183, 185, 178, 166, 159, 143, 155, 149, 153, 147, 145, 152, 169, 164, 162, 179, 172, 176, 190, 207, 213, 207, 204, 200, 200, 194, 188, 179, 184, 170, 158, 170, 179, 169, 164, 163, 149, 139, 123, 125, 118},
{267, 266, 270, 286, 274, 288, 320, 348, 363, 386, 371, 358, 347, 335, 325, 336, 315, 305, 346, 356, 362, 370, 388, 348, 340, 306, 295, 290, 298, 310, 325, 329, 311, 321, 301, 296, 319, 307, 296, 281, 261, 275, 311, 354, 361, 377, 358, 345, 304, 334, 438, 564, 586, 613, 599, 545, 425, 422, 386, 411, 413, 403, 395, 416, 389, 411, 427, 389, 374, 372, 399, 386, 436, 415, 434, 362, 350, 323, 351, 369, 423, 475, 466, 454, 431, 394, 376, 401, 390, 425, 431, 415, 387, 466, 450, 426, 443, 444, 402, 376},
{317, 310, 294, 334, 341, 322, 328, 391, 420, 420, 414, 403, 363, 315, 319, 304, 303, 287, 318, 337, 378, 401, 395, 371, 349, 300, 266, 276, 391, 401, 397, 401, 423, 314, 330, 330, 330, 304, 312, 293, 282, 289, 321, 363, 346, 372, 361, 325, 270, 321, 399, 557, 647, 673, 666, 625, 501, 457, 475, 518, 510, 510, 446, 380, 398, 440, 492, 524, 575, 533, 568, 573, 584, 572, 571, 542, 503, 492, 480, 507, 564, 617, 601, 610, 658, 582, 541, 648, 615, 577, 566, 553, 430, 495, 460, 494, 508, 485, 462, 443}}

// 27 Reading of the 8 sensors, 100 samples per sensor
{{213, 196, 192, 223, 241, 249, 231, 251, 243, 221, 217, 229, 233, 209, 237, 246, 225, 204, 223, 204, 194, 231, 229, 227, 231, 241, 207, 204, 207, 200, 181, 213, 224, 198, 218, 214, 186, 209, 222, 203, 224, 222, 191, 177, 178, 184, 220, 248, 248, 246, 272, 267, 256, 275, 279, 235, 216, 193, 173, 170, 173, 183, 189, 190, 200, 212, 229, 219, 215, 245, 237, 237, 241, 241, 193, 197, 193, 189, 202, 216, 209, 190, 207, 195, 196, 221, 209, 227, 239, 270, 262, 275, 250, 247, 226, 214, 221, 246, 247, 224},
{331, 288, 248, 245, 268, 266, 300, 302, 377, 377, 380, 367, 384, 330, 337, 370, 372, 354, 374, 355, 317, 332, 333, 305, 294, 316, 287, 283, 308, 310, 316, 341, 331, 283, 306, 280, 268, 291, 299, 268, 286, 262, 238, 255, 273, 341, 339, 394, 385, 457, 419, 438, 398, 408, 322, 311, 303, 314, 334, 338, 335, 344, 320, 277, 278, 292, 294, 294, 296, 312, 279, 250, 254, 255, 238, 242, 244, 259, 260, 245, 246, 260, 300, 320, 314, 323, 332, 291, 313, 322, 326, 362, 378, 359, 388, 376, 332, 318, 311, 303},
{208, 224, 201, 191, 182, 178, 192, 209, 220, 212, 218, 188, 162, 144, 155, 161, 184, 194, 195, 194, 200, 179, 190, 191, 185, 155, 168, 155, 162, 156, 162, 161, 158, 163, 167, 177, 163, 162, 156, 144, 138, 143, 142, 139, 145, 157, 168, 171, 170, 173, 156, 149, 148, 146, 131, 136, 132, 120, 116, 134, 130, 131, 153, 160, 153, 147, 138, 127, 120, 114, 117, 117, 110, 121, 126, 137, 152, 145, 138, 131, 132, 132, 141, 144, 148, 148, 160, 165, 177, 180, 162, 143, 133, 123, 134, 144, 149, 147, 139, 128},
{541, 525, 539, 530, 556, 455, 488, 568, 604, 601, 652, 625, 554, 497, 630, 626, 629, 652, 680, 586, 550, 566, 564, 520, 513, 488, 543, 515, 526, 453, 588, 524, 580, 650, 717, 623, 676, 641, 567, 476, 508, 477, 470, 474, 504, 474, 494, 594, 598, 590, 683, 707, 699, 717, 741, 641, 614, 533, 555, 550, 570, 529, 588, 533, 547, 566, 603, 550, 591, 554, 554, 539, 542, 549, 552, 581, 598, 581, 549, 591, 550, 540, 582, 617, 621, 641, 678, 735, 756, 768, 831, 771, 730, 682, 679, 573, 616, 565, 575, 518},
{404, 411, 417, 388, 423, 368, 371, 402, 414, 385, 408, 391, 347, 328, 458, 451, 455, 463, 486, 382, 385, 404, 399, 375, 399, 372, 384, 391, 393, 324, 399, 368, 410, 444, 504, 460, 485, 439, 392, 318, 295, 275, 276, 311, 317, 318, 366, 435, 425, 437, 522, 501, 486, 498, 497, 414, 405, 357, 334, 359, 355, 360, 375, 372, 349, 385, 387, 390, 412, 416, 392, 376, 366, 372, 369, 362, 394, 381, 355, 392, 401, 364, 407, 414, 364, 384, 420, 424, 475, 514, 530, 497, 472, 423, 464, 434, 461, 460, 487, 425},
{135, 128, 137, 128, 139, 140, 146, 167, 172, 163, 153, 145, 118, 107, 136, 140, 148, 146, 153, 132, 151, 147, 149, 148, 152, 126, 151, 153, 157, 146, 158, 136, 143, 152, 173, 168, 169, 161, 143, 114, 108, 100, 100, 105, 114, 115, 132, 137, 136, 139, 174, 165, 174, 183, 180, 149, 145, 126, 110, 128, 119, 119, 120, 119, 93, 122, 129, 137, 140, 152, 136, 129, 122, 129, 113, 106, 113, 107, 108, 130, 147, 143, 167, 162, 147, 145, 156, 159, 171, 179, 181, 180, 156, 148, 166, 160, 156, 163, 167, 144},
{240, 243, 248, 265, 275, 280, 275, 273, 270, 275, 258, 316, 324, 323, 326, 313, 310, 379, 380, 386, 389, 420, 387, 374, 372, 404, 346, 347, 369, 382, 379, 447, 450, 461, 450, 442, 391, 367, 368, 364, 383, 367, 362, 331, 325, 294, 285, 298, 316, 336, 347, 341, 323, 323, 319, 339, 342, 357, 368, 373, 339, 339, 318, 298, 267, 283, 295, 308, 297, 378, 357, 362, 351, 366, 309, 312, 319, 316, 305, 312, 334, 299, 316, 328, 321, 296, 369, 373, 354, 341, 361, 327, 320, 323, 326, 332, 303, 337, 346, 345},
{327, 276, 279, 302, 326, 327, 307, 296, 269, 283, 271, 355, 426, 428, 404, 397, 353, 299, 297, 314, 318, 335, 326, 335, 331, 349, 331, 357, 353, 341, 322, 430, 425, 416, 453, 453, 357, 340, 371, 356, 377, 376, 375, 347, 308, 303, 324, 319, 315, 342, 361, 342, 361, 396, 383, 398, 387, 368, 339, 354, 301, 330, 315, 343, 335, 373, 409, 406, 391, 418, 391, 364, 392, 375, 392, 373, 361, 324, 329, 304, 336, 316, 342, 332, 317, 308, 362, 364, 384, 384, 385, 402, 389, 379, 394, 397, 321, 344, 367, 329}}

// 28 Reading of the 8 sensors, 100 samples per sensor
{{325, 319, 307, 287, 295, 251, 245, 252, 253, 229, 216, 248, 268, 270, 257, 252, 205, 178, 180, 236, 244, 268, 259, 255, 215, 221, 222, 216, 223, 241, 257, 242, 249, 243, 230, 206, 233, 240, 234, 213, 211, 173, 182, 253, 302, 303, 321, 334, 286, 248, 247, 225, 218, 228, 230, 238, 241, 211, 217, 206, 201, 197, 193, 178, 171, 170, 188, 187, 189, 193, 189, 166, 161, 142, 135, 131, 138, 211, 215, 213, 240, 241, 181, 192, 201, 168, 188, 197, 187, 184, 198, 175, 165, 152, 155, 147, 159, 165, 234, 258},
{413, 405, 411, 395, 375, 356, 368, 382, 428, 466, 453, 492, 487, 445, 383, 385, 337, 315, 309, 328, 369, 355, 364, 348, 318, 262, 277, 272, 289, 313, 380, 372, 379, 378, 463, 433, 450, 445, 437, 333, 327, 277, 320, 338, 388, 372, 394, 357, 332, 278, 278, 267, 251, 248, 239, 237, 240, 304, 303, 288, 289, 277, 225, 235, 228, 223, 249, 260, 256, 260, 261, 238, 235, 215, 222, 271, 270, 284, 288, 275, 269, 281, 245, 246, 257, 205, 223, 236, 253, 259, 267, 235, 224, 187, 178, 188, 184, 181, 195, 236},
{194, 196, 193, 191, 201, 222, 229, 232, 264, 261, 249, 239, 245, 216, 242, 236, 247, 264, 262, 237, 234, 259, 246, 249, 246, 232, 204, 180, 162, 153, 153, 131, 149, 156, 203, 234, 226, 238, 242, 221, 194, 199, 173, 175, 187, 184, 188, 186, 167, 138, 143, 139, 154, 173, 194, 187, 213, 214, 204, 192, 189, 148, 140, 137, 134, 149, 169, 167, 164, 185, 197, 183, 194, 198, 193, 172, 178, 175, 176, 154, 162, 152, 151, 156, 151, 139, 168, 181, 177, 197, 206, 184, 161, 165, 149, 148, 155, 165, 160, 153},
{367, 404, 372, 357, 374, 388, 348, 379, 423, 412, 416, 496, 584, 641, 730, 719, 677, 623, 576, 553, 574, 589, 596, 575, 510, 522, 526, 488, 488, 497, 472, 432, 409, 407, 338, 412, 395, 491, 565, 678, 631, 663, 608, 596, 480, 490, 559, 534, 489, 496, 577, 540, 569, 609, 674, 646, 667, 669, 640, 627, 588, 521, 497, 484, 522, 537, 525, 564, 549, 468, 474, 478, 435, 462, 479, 438, 445, 565, 525, 490, 504, 505, 369, 400, 476, 485, 503, 539, 589, 579, 562, 577, 546, 469, 478, 502, 547, 551, 591, 575},
{280, 293, 287, 289, 295, 271, 256, 292, 299, 309, 317, 354, 328, 400, 449, 445, 425, 430, 396, 395, 396, 406, 427, 439, 405, 429, 442, 417, 372, 346, 321, 282, 278, 267, 265, 295, 290, 336, 381, 455, 430, 451, 416, 444, 392, 395, 449, 441, 383, 358, 396, 371, 386, 430, 464, 453, 448, 455, 442, 427, 404, 357, 329, 329, 345, 372, 367, 384, 343, 299, 313, 320, 286, 283, 280, 221, 218, 351, 355, 357, 363, 362, 250, 237, 291, 310, 324, 354, 428, 418, 398, 402, 379, 309, 287, 299, 340, 337, 354, 379},
{99, 106, 103, 102, 108, 102, 98, 106, 105, 96, 100, 107, 108, 130, 143, 149, 149, 150, 145, 152, 146, 146, 151, 149, 142, 148, 154, 142, 131, 126, 118, 103, 112, 127, 117, 134, 136, 141, 141, 165, 152, 156, 153, 166, 157, 157, 174, 171, 149, 138, 154, 138, 145, 145, 162, 153, 159, 156, 157, 146, 137, 121, 107, 107, 107, 115, 112, 123, 114, 99, 103, 101, 95, 97, 102, 93, 101, 123, 120, 121, 125, 118, 96, 100, 104, 102, 102, 110, 126, 131, 124, 130, 119, 102, 93, 93, 99, 111, 111, 123},
{284, 288, 325, 335, 332, 341, 351, 341, 358, 354, 323, 319, 372, 337, 360, 408, 399, 346, 374, 339, 292, 306, 287, 282, 301, 304, 332, 330, 343, 347, 332, 331, 339, 333, 308, 304, 289, 272, 255, 263, 296, 342, 346, 376, 395, 373, 330, 342, 315, 288, 302, 280, 261, 238, 267, 258, 293, 319, 312, 291, 306, 330, 314, 323, 326, 322, 284, 304, 303, 319, 303, 305, 290, 279, 259, 254, 225, 253, 265, 263, 300, 291, 264, 311, 314, 309, 321, 323, 279, 283, 281, 267, 260, 300, 300, 305, 328, 332, 323, 315},
{293, 287, 311, 328, 353, 350, 361, 333, 314, 283, 264, 284, 392, 395, 406, 409, 399, 317, 341, 318, 318, 315, 279, 287, 297, 307, 346, 346, 327, 319, 310, 304, 328, 333, 339, 331, 339, 326, 304, 302, 364, 392, 391, 475, 504, 458, 413, 455, 377, 337, 338, 315, 260, 239, 249, 271, 316, 320, 326, 318, 307, 342, 327, 328, 331, 321, 258, 306, 304, 343, 348, 333, 297, 289, 264, 252, 238, 317, 339, 322, 338, 335, 276, 272, 267, 296, 297, 289, 268, 255, 230, 228, 203, 238, 261, 257, 257, 258, 313, 307}}

// 29 Reading of the 8 sensors, 100 samples per sensor
{{262, 274, 280, 287, 252, 270, 264, 256, 252, 261, 232, 258, 241, 255, 259, 262, 255, 261, 267, 279, 315, 297, 295, 278, 254, 212, 254, 261, 264, 273, 272, 230, 242, 214, 197, 204, 198, 207, 222, 275, 264, 271, 269, 268, 216, 212, 223, 200, 179, 171, 170, 154, 139, 145, 154, 165, 160, 157, 226, 221, 219, 237, 254, 226, 237, 234, 226, 226, 204, 198, 196, 212, 203, 206, 200, 197, 165, 158, 160, 190, 181, 179, 178, 194, 199, 205, 217, 222, 201, 180, 186, 175, 172, 175, 170, 164, 162, 148, 160, 165},
{371, 375, 365, 396, 398, 391, 435, 442, 438, 466, 455, 433, 396, 379, 366, 409, 432, 458, 489, 516, 515, 471, 452, 430, 358, 325, 368, 351, 319, 328, 314, 285, 290, 305, 283, 304, 288, 339, 370, 398, 374, 379, 346, 292, 254, 295, 374, 361, 363, 355, 343, 258, 267, 294, 303, 308, 300, 273, 293, 289, 265, 288, 298, 260, 281, 268, 269, 306, 303, 285, 320, 345, 312, 318, 338, 310, 256, 291, 271, 307, 301, 291, 274, 288, 256, 278, 297, 294, 298, 287, 283, 292, 273, 267, 252, 230, 199, 207, 191, 209},
{146, 166, 155, 171, 190, 195, 168, 172, 167, 157, 160, 180, 171, 154, 178, 168, 146, 142, 153, 117, 125, 126, 127, 132, 141, 139, 143, 142, 146, 132, 146, 142, 144, 144, 160, 159, 159, 168, 169, 159, 153, 160, 159, 136, 140, 139, 162, 160, 160, 161, 152, 120, 115, 115, 99, 101, 94, 80, 78, 80, 84, 82, 90, 93, 100, 91, 110, 118, 122, 117, 120, 108, 99, 115, 113, 112, 110, 103, 79, 82, 81, 80, 85, 81, 72, 85, 86, 95, 97, 107, 100, 95, 80, 82, 73, 76, 80, 82, 77, 80},
{601, 540, 530, 560, 616, 605, 561, 523, 514, 480, 525, 536, 563, 542, 585, 539, 532, 498, 550, 527, 575, 597, 584, 539, 541, 520, 486, 535, 569, 513, 468, 436, 427, 394, 384, 422, 568, 560, 617, 627, 632, 508, 548, 467, 437, 420, 500, 420, 407, 472, 485, 399, 414, 422, 391, 357, 414, 417, 474, 464, 537, 524, 530, 512, 540, 495, 493, 588, 601, 591, 588, 566, 474, 501, 513, 490, 510, 484, 430, 419, 441, 475, 466, 459, 420, 523, 505, 525, 530, 549, 449, 403, 406, 374, 344, 341, 362, 378, 424, 447},
{404, 388, 402, 443, 478, 487, 456, 429, 422, 395, 440, 462, 463, 432, 450, 383, 411, 386, 405, 409, 448, 450, 461, 439, 420, 404, 337, 370, 406, 382, 362, 360, 339, 311, 307, 306, 410, 415, 431, 449, 448, 370, 386, 362, 339, 337, 377, 353, 345, 399, 410, 392, 403, 403, 372, 348, 346, 318, 351, 341, 366, 364, 355, 371, 389, 397, 376, 481, 466, 440, 435, 430, 341, 367, 394, 380, 397, 382, 342, 320, 321, 372, 362, 359, 353, 369, 294, 311, 313, 314, 306, 302, 277, 265, 264, 261, 274, 318, 310, 323},
{128, 140, 135, 155, 168, 168, 162, 166, 166, 158, 171, 166, 156, 139, 140, 118, 131, 127, 133, 147, 155, 148, 154, 147, 135, 134, 126, 158, 176, 168, 163, 161, 126, 102, 100, 102, 134, 151, 156, 158, 159, 131, 124, 124, 121, 119, 131, 135, 126, 137, 139, 144, 138, 140, 130, 124, 113, 98, 119, 118, 135, 131, 130, 125, 136, 125, 134, 147, 144, 129, 125, 113, 109, 119, 124, 127, 143, 137, 132, 130, 132, 128, 125, 111, 111, 119, 104, 114, 112, 114, 110, 110, 97, 113, 114, 104, 111, 123, 107, 112},
{337, 352, 318, 314, 301, 286, 398, 392, 400, 422, 459, 369, 420, 409, 401, 362, 360, 321, 326, 326, 311, 311, 290, 261, 290, 317, 326, 382, 421, 409, 383, 376, 350, 348, 332, 350, 345, 372, 347, 350, 358, 358, 289, 305, 292, 271, 286, 313, 296, 305, 309, 327, 311, 307, 307, 299, 341, 385, 402, 396, 438, 391, 355, 365, 372, 314, 372, 360, 321, 326, 328, 229, 308, 316, 314, 337, 384, 324, 336, 343, 334, 318, 322, 321, 328, 326, 295, 334, 325, 312, 317, 329, 286, 291, 286, 290, 287, 281, 294, 279},
{444, 437, 386, 336, 328, 318, 369, 348, 383, 407, 424, 412, 434, 391, 372, 343, 337, 335, 366, 407, 457, 458, 436, 393, 396, 373, 387, 490, 569, 571, 583, 569, 557, 493, 445, 424, 438, 396, 390, 444, 430, 404, 356, 379, 338, 327, 349, 357, 321, 318, 320, 377, 364, 367, 353, 357, 379, 399, 451, 457, 469, 398, 387, 406, 412, 396, 479, 473, 392, 390, 397, 264, 324, 345, 329, 323, 362, 313, 308, 314, 308, 319, 312, 333, 373, 369, 328, 331, 311, 279, 302, 292, 304, 341, 326, 318, 324, 314, 275, 258}}

// 30 Reading of the 8 sensors, 100 samples per sensor
{{291, 316, 367, 389, 348, 370, 344, 311, 285, 293, 389, 394, 420, 433, 420, 315, 297, 241, 221, 264, 262, 270, 299, 288, 258, 271, 279, 239, 246, 227, 223, 199, 214, 211, 233, 243, 246, 256, 249, 232, 222, 225, 209, 234, 241, 238, 260, 276, 272, 306, 297, 281, 259, 248, 230, 225, 215, 210, 220, 201, 235, 242, 267, 246, 244, 252, 250, 228, 247, 243, 215, 210, 234, 238, 238, 244, 236, 210, 195, 181, 225, 256, 269, 284, 300, 252, 242, 244, 221, 247, 250, 230, 217, 227, 174, 175, 176, 164, 191, 183},
{394, 437, 548, 625, 593, 604, 571, 547, 456, 543, 630, 652, 612, 629, 573, 503, 522, 510, 497, 508, 469, 437, 442, 423, 413, 407, 368, 350, 384, 351, 355, 351, 324, 315, 319, 317, 322, 337, 345, 316, 321, 304, 332, 331, 333, 322, 336, 299, 266, 346, 366, 363, 371, 369, 343, 324, 316, 306, 327, 305, 314, 324, 328, 322, 298, 294, 272, 263, 265, 293, 277, 289, 306, 303, 292, 308, 302, 320, 299, 269, 285, 308, 263, 259, 273, 249, 223, 236, 248, 258, 280, 273, 255, 242, 231, 217, 216, 247, 280, 281},
{172, 159, 152, 174, 157, 150, 173, 180, 154, 157, 161, 133, 128, 123, 115, 105, 111, 117, 130, 156, 159, 182, 191, 186, 176, 174, 152, 137, 138, 129, 138, 138, 143, 143, 145, 141, 133, 116, 108, 89, 80, 92, 93, 116, 134, 143, 159, 164, 150, 139, 127, 98, 107, 106, 110, 113, 117, 104, 102, 96, 93, 85, 89, 91, 87, 97, 96, 92, 97, 107, 101, 113, 113, 109, 99, 102, 97, 105, 126, 124, 127, 130, 139, 119, 122, 119, 128, 109, 111, 126, 120, 100, 98, 98, 76, 74, 76, 77, 79, 77},
