EMG data generated by the Myo Armband in response to different hand gestures used to control a prosthesis.
EMG data of the Myo Armband for the hand gesture that generates the spherical grasp in the prosthesis.

// 1 Reading of the 8 sensors, 100 samples per sensor
{{153, 140, 148, 126, 125, 114, 95, 93, 89, 85, 85, 90, 85, 101, 98, 95, 100, 118, 108, 115, 123, 113, 92, 98, 95, 83, 99, 97, 86, 81, 92, 79, 76, 86, 119, 116, 118, 125, 120, 99, 101, 99, 92, 93, 90, 102, 100, 114, 118, 115, 100, 103, 93, 101, 98, 94, 88, 93, 76, 88, 94, 100, 92, 93, 93, 95, 98, 110, 110, 99, 95, 92, 80, 84, 102, 101, 103, 99, 100, 89, 85, 84, 94, 91, 82, 98, 96, 99, 105, 110, 111, 111, 98, 106, 102, 102, 105, 111, 93, 100},
{84, 88, 90, 91, 87, 88, 76, 76, 79, 81, 77, 82, 83, 91, 89, 89, 86, 80, 62, 65, 72, 70, 71, 73, 69, 62, 66, 63, 58, 57, 65, 64, 67, 77, 84, 95, 97, 93, 86, 86, 77, 75, 86, 91, 106, 98, 94, 93, 91, 65, 84, 89, 80, 85, 87, 68, 63, 68, 63, 67, 70, 74, 68, 68, 65, 68, 66, 78, 79, 77, 76, 86, 77, 74, 74, 68, 63, 59, 58, 64, 67, 59, 61, 59, 51, 57, 73, 77, 80, 81, 78, 76, 74, 79, 78, 81, 73, 71, 69, 80},
{151, 138, 155, 164, 171, 172, 178, 161, 146, 146, 147, 145, 171, 189, 181, 181, 181, 161, 146, 150, 151, 168, 161, 160, 167, 181, 162, 172, 167, 183, 163, 161, 157, 169, 144, 191, 188, 181, 162, 160, 113, 126, 138, 141, 153, 149, 141, 132, 129, 123, 143, 146, 141, 160, 161, 134, 144, 173, 184, 178, 185, 181, 161, 128, 140, 138, 128, 129, 133, 120, 114, 118, 104, 106, 102, 102, 102, 112, 109, 112, 114, 108, 104, 100, 101, 102, 101, 121, 122, 122, 127, 125, 117, 122, 122, 131, 144, 130, 127, 135},
{304, 328, 371, 395, 426, 430, 473, 466, 438, 415, 405, 373, 486, 504, 518, 537, 503, 377, 415, 419, 380, 422, 418, 374, 343, 410, 376, 381, 360, 360, 287, 276, 258, 342, 333, 365, 363, 365, 282, 271, 213, 263, 290, 289, 327, 355, 330, 284, 290, 267, 295, 308, 320, 335, 339, 298, 316, 396, 406, 400, 423, 421, 345, 319, 349, 313, 266, 290, 298, 270, 270, 280, 275, 263, 270, 272, 269, 263, 266, 262, 254, 240, 232, 276, 345, 350, 377, 378, 337, 249, 248, 258, 280, 300, 311, 321, 285, 292, 270, 361},
{119, 105, 113, 111, 100, 107, 122, 115, 103, 104, 105, 91, 129, 142, 141, 136, 134, 94, 76, 76, 76, 82, 83, 87, 94, 116, 117, 116, 116, 111, 84, 86, 90, 95, 100, 104, 95, 90, 81, 85, 82, 88, 89, 90, 77, 84, 85, 80, 82, 83, 98, 98, 99, 98, 101, 82, 90, 95, 93, 92, 95, 84, 77, 79, 88, 89, 85, 91, 93, 79, 76, 80, 72, 68, 77, 73, 80, 80, 79, 73, 74, 60, 57, 62, 72, 82, 86, 86, 94, 93, 100, 100, 104, 94, 88, 71, 76, 73, 78, 78},
{96, 114, 121, 114, 113, 128, 100, 93, 97, 89, 69, 71, 71, 77, 77, 72, 78, 86, 85, 87, 91, 84, 76, 76, 80, 76, 76, 79, 80, 81, 84, 85, 74, 66, 64, 90, 95, 102, 103, 104, 80, 77, 68, 68, 63, 61, 60, 60, 57, 58, 65, 65, 68, 90, 98, 93, 94, 91, 73, 69, 69, 67, 74, 71, 77, 85, 87, 89, 91, 81, 76, 75, 64, 66, 68, 66, 69, 75, 68, 63, 59, 54, 47, 50, 57, 58, 64, 71, 72, 75, 93, 89, 82, 83, 94, 82, 81, 88, 91, 76},
{350, 445, 453, 446, 484, 507, 412, 431, 445, 392, 410, 434, 416, 446, 443, 388, 413, 438, 396, 387, 400, 342, 344, 372, 360, 336, 351, 389, 389, 409, 479, 490, 457, 427, 419, 407, 396, 380, 409, 403, 365, 354, 307, 269, 244, 218, 227, 276, 348, 361, 385, 387, 362, 350, 351, 346, 331, 348, 323, 331, 293, 303, 280, 241, 257, 309, 329, 373, 389, 379, 377, 377, 375, 392, 418, 379, 353, 332, 292, 250, 253, 317, 328, 350, 349, 362, 414, 414, 444, 441, 476, 403, 369, 319, 395, 338, 316, 345, 351, 292},
{638, 618, 661, 544, 548, 535, 492, 458, 456, 408, 413, 440, 440, 513, 508, 449, 507, 592, 538, 583, 603, 528, 436, 482, 470, 441, 566, 544, 487, 466, 547, 468, 462, 503, 660, 611, 588, 634, 610, 431, 452, 444, 374, 409, 449, 498, 497, 531, 554, 514, 457, 489, 478, 505, 505, 527, 500, 530, 448, 506, 481, 496, 438, 440, 417, 462, 467, 549, 536, 498, 442, 462, 420, 450, 545, 548, 521, 478, 468, 420, 413, 437, 490, 525, 468, 531, 574, 566, 583, 602, 645, 578, 527, 500, 499, 400, 433, 473, 439, 442}}

// 2 Reading of the 8 sensors, 100 samples per sensor
{{75, 84, 82, 81, 77, 75, 70, 76, 81, 85, 83, 69, 62, 56, 52, 51, 54, 59, 57, 59, 62, 63, 77, 76, 79, 90, 90, 80, 100, 99, 87, 87, 82, 58, 65, 76, 77, 79, 86, 80, 79, 88, 90, 88, 110, 124, 122, 122, 119, 106, 86, 93, 90, 91, 89, 103, 100, 109, 110, 107, 94, 83, 88, 89, 90, 94, 118, 110, 105, 101, 96, 74, 80, 84, 87, 91, 93, 85, 82, 81, 77, 62, 63, 61, 64, 67, 67, 67, 69, 68, 61, 63, 63, 58, 53, 51, 54, 61, 64, 67},
{105, 96, 78, 78, 71, 70, 82, 88, 87, 87, 102, 101, 98, 100, 105, 89, 88, 91, 90, 81, 81, 70, 65, 64, 62, 64, 62, 62, 62, 65, 68, 74, 75, 77, 77, 71, 83, 80, 87, 84, 86, 79, 87, 84, 99, 100, 103, 98, 94, 80, 76, 67, 66, 86, 87, 86, 90, 94, 72, 77, 75, 71, 69, 76, 75, 85, 91, 87, 98, 105, 97, 95, 103, 98, 86, 96, 99, 91, 82, 78, 80, 79, 77, 95, 101, 95, 87, 91, 71, 66, 62, 63, 61, 62, 63, 82, 83, 88, 87, 91},
{160, 154, 139, 144, 122, 125, 150, 186, 178, 175, 175, 185, 150, 139, 147, 149, 117, 117, 116, 113, 111, 104, 105, 107, 111, 114, 117, 114, 121, 136, 135, 137, 137, 130, 108, 100, 89, 98, 111, 113, 113, 111, 103, 99, 103, 120, 128, 137, 144, 147, 139, 141, 135, 130, 139, 130, 127, 137, 138, 117, 132, 133, 125, 121, 127, 126, 120, 114, 125, 126, 127, 126, 159, 151, 148, 138, 138, 107, 100, 98, 105, 120, 116, 125, 134, 140, 138, 137, 135, 126, 111, 103, 109, 100, 101, 106, 102, 96, 102, 101},
{308, 285, 263, 235, 214, 200, 250, 263, 259, 249, 249, 214, 175, 142, 138, 162, 147, 187, 196, 206, 186, 191, 164, 192, 202, 219, 216, 214, 194, 198, 196, 205, 203, 194, 172, 165, 144, 141, 149, 195, 215, 211, 228, 224, 194, 183, 188, 191, 222, 222, 206, 209, 205, 190, 212, 208, 211, 218, 214, 179, 195, 190, 171, 159, 166, 184, 199, 188, 191, 195, 200, 182, 222, 213, 207, 168, 161, 116, 128, 128, 135, 155, 147, 143, 152, 153, 144, 146, 156, 152, 155, 158, 164, 157, 159, 153, 144, 136, 151, 162},
{65, 69, 69, 64, 72, 69, 71, 84, 85, 77, 77, 68, 47, 50, 50, 46, 56, 57, 56, 60, 61, 54, 60, 58, 61, 60, 59, 53, 54, 57, 67, 66, 71, 78, 81, 77, 77, 78, 73, 68, 68, 67, 64, 61, 63, 65, 72, 72, 74, 67, 59, 59, 63, 63, 70, 71, 70, 71, 74, 69, 75, 71, 72, 71, 70, 67, 64, 60, 56, 54, 50, 53, 55, 56, 60, 64, 63, 59, 62, 59, 54, 55, 55, 50, 60, 62, 63, 61, 60, 52, 48, 45, 51, 51, 48, 49, 56, 52, 53, 52},
{95, 100, 100, 91, 74, 63, 58, 57, 56, 58, 62, 58, 58, 59, 58, 53, 54, 67, 77, 76, 75, 74, 68, 57, 56, 62, 70, 65, 68, 70, 70, 70, 71, 72, 70, 77, 74, 78, 75, 77, 75, 70, 66, 68, 75, 72, 74, 76, 74, 61, 52, 53, 57, 62, 71, 79, 77, 82, 85, 80, 78, 77, 69, 67, 82, 77, 85, 91, 86, 69, 67, 60, 49, 52, 52, 54, 54, 53, 49, 50, 56, 60, 57, 60, 67, 73, 70, 80, 84, 84, 73, 72, 66, 61, 59, 66, 67, 62, 61, 56},
{336, 358, 355, 361, 384, 342, 331, 350, 306, 278, 290, 272, 259, 252, 241, 213, 216, 228, 300, 290, 287, 295, 288, 222, 266, 318, 346, 381, 404, 376, 336, 314, 267, 224, 218, 255, 253, 315, 317, 347, 441, 431, 387, 419, 422, 328, 338, 342, 313, 283, 275, 322, 328, 339, 386, 380, 352, 348, 360, 318, 315, 301, 313, 332, 352, 335, 336, 360, 309, 268, 302, 312, 264, 303, 298, 309, 303, 321, 280, 297, 327, 334, 328, 341, 328, 280, 258, 322, 308, 307, 299, 316, 250, 289, 304, 331, 311, 317, 279, 269},
{490, 542, 505, 459, 451, 414, 362, 401, 404, 389, 367, 329, 307, 281, 266, 254, 265, 207, 250, 280, 302, 320, 392, 389, 427, 555, 563, 557, 637, 613, 513, 505, 456, 338, 386, 400, 408, 440, 436, 399, 512, 521, 508, 543, 591, 538, 550, 547, 528, 472, 411, 428, 411, 405, 467, 521, 471, 492, 502, 444, 389, 391, 420, 432, 436, 466, 538, 512, 467, 453, 438, 371, 377, 415, 432, 468, 497, 480, 458, 466, 444, 378, 385, 404, 391, 384, 371, 436, 433, 410, 349, 363, 271, 232, 263, 277, 284, 350, 350, 374}}

// 3 Reading of the 8 sensors, 100 samples per sensor
{{96, 94, 85, 73, 73, 97, 101, 116, 134, 135, 125, 133, 122, 108, 113, 114, 108, 106, 105, 104, 105, 129, 130, 127, 124, 120, 99, 103, 100, 103, 103, 91, 91, 94, 89, 86, 89, 78, 76, 77, 87, 87, 89, 86, 96, 87, 82, 81, 85, 74, 86, 90, 95, 90, 90, 89, 87, 78, 81, 81, 76, 77, 80, 83, 92, 91, 88, 99, 96, 93, 101, 105, 92, 93, 89, 93, 86, 89, 88, 92, 73, 82, 91, 94, 98, 101, 99, 94, 99, 97, 97, 106, 107, 102, 97, 104, 105, 109, 108, 127},
{100, 99, 100, 99, 102, 106, 114, 125, 133, 129, 120, 118, 96, 105, 103, 115, 119, 117, 105, 122, 120, 107, 114, 112, 93, 86, 86, 82, 73, 72, 82, 79, 77, 90, 89, 78, 81, 82, 72, 76, 79, 78, 86, 85, 89, 108, 117, 107, 108, 114, 99, 90, 96, 93, 93, 88, 89, 86, 88, 78, 80, 77, 97, 103, 107, 113, 121, 104, 102, 97, 92, 82, 77, 69, 70, 74, 72, 89, 89, 85, 75, 75, 70, 75, 102, 105, 114, 113, 117, 106, 102, 96, 96, 90, 77, 87, 93, 87, 89, 101},
{91, 86, 90, 95, 102, 112, 127, 139, 148, 159, 160, 161, 155, 179, 162, 177, 172, 184, 160, 161, 147, 150, 137, 134, 138, 139, 130, 130, 156, 146, 139, 152, 147, 128, 126, 128, 113, 113, 104, 126, 130, 129, 135, 145, 129, 127, 140, 140, 124, 126, 125, 110, 99, 108, 114, 106, 117, 121, 111, 127, 130, 132, 124, 152, 142, 142, 140, 173, 164, 193, 190, 194, 169, 157, 119, 118, 111, 113, 129, 128, 136, 131, 129, 123, 116, 111, 126, 134, 137, 143, 150, 142, 157, 156, 155, 154, 154, 149, 137, 145},
{187, 174, 173, 200, 227, 226, 262, 277, 283, 252, 250, 244, 231, 213, 249, 315, 306, 324, 348, 322, 267, 261, 241, 259, 270, 259, 301, 313, 273, 285, 308, 269, 289, 298, 281, 265, 286, 293, 270, 337, 346, 325, 354, 370, 324, 311, 313, 272, 249, 273, 322, 331, 319, 339, 349, 321, 326, 354, 343, 321, 300, 330, 305, 358, 356, 357, 345, 423, 407, 428, 433, 464, 404, 368, 350, 340, 293, 303, 316, 304, 304, 301, 259, 267, 255, 254, 258, 309, 328, 342, 402, 389, 367, 365, 354, 313, 302, 295, 269, 291},
{51, 44, 47, 46, 47, 52, 56, 57, 64, 67, 65, 72, 71, 76, 77, 90, 85, 88, 90, 98, 93, 92, 93, 88, 82, 76, 80, 75, 74, 67, 67, 70, 84, 85, 83, 82, 79, 66, 63, 78, 78, 86, 89, 90, 86, 86, 77, 74, 73, 63, 66, 74, 72, 72, 82, 82, 73, 75, 75, 65, 65, 62, 63, 67, 73, 68, 92, 107, 106, 107, 110, 98, 74, 73, 77, 81, 79, 85, 83, 76, 70, 75, 76, 79, 81, 83, 117, 113, 120, 120, 118, 76, 87, 83, 86, 86, 86, 75, 65, 58},
{69, 61, 63, 71, 72, 88, 91, 85, 83, 79, 62, 64, 74, 69, 72, 82, 81, 95, 100, 99, 95, 99, 92, 90, 95, 91, 84, 76, 83, 78, 77, 78, 72, 60, 58, 66, 69, 70, 70, 71, 65, 66, 64, 66, 66, 69, 62, 68, 66, 66, 65, 71, 62, 60, 60, 61, 52, 59, 62, 69, 67, 68, 69, 75, 71, 72, 75, 74, 74, 77, 76, 71, 78, 72, 69, 67, 73, 65, 64, 62, 70, 67, 66, 69, 79, 74, 80, 83, 84, 84, 83, 76, 74, 73, 67, 67, 86, 84, 80, 80},
{309, 291, 301, 317, 300, 283, 296, 328, 324, 328, 334, 339, 271, 245, 248, 325, 344, 390, 433, 440, 419, 408, 388, 357, 427, 421, 398, 410, 426, 389, 367, 388, 356, 324, 277, 306, 302, 306, 341, 354, 346, 336, 324, 309, 285, 269, 255, 259, 246, 284, 253, 305, 300, 280, 242, 264, 213, 327, 373, 393, 395, 417, 347, 310, 298, 295, 261, 270, 313, 319, 302, 320, 337, 310, 306, 339, 323, 300, 290, 284, 301, 310, 317, 345, 407, 364, 353, 356, 381, 343, 390, 401, 435, 411, 422, 407, 425, 392, 361, 396},
{499, 479, 440, 466, 442, 372, 356, 331, 258, 295, 306, 322, 355, 375, 453, 543, 570, 594, 635, 584, 597, 635, 600, 561, 608, 558, 489, 509, 505, 480, 436, 428, 420, 455, 418, 417, 432, 419, 402, 394, 425, 404, 418, 390, 435, 387, 383, 367, 386, 324, 354, 360, 385, 351, 339, 349, 360, 368, 393, 446, 436, 460, 442, 458, 452, 430, 391, 421, 395, 413, 494, 526, 498, 518, 499, 500, 467, 459, 441, 434, 365, 486, 514, 538, 539, 551, 471, 465, 439, 427, 432, 436, 456, 475, 488, 514, 549, 527, 502, 621}}

// 4 Reading of the 8 sensors, 100 samples per sensor
{{110, 119, 121, 100, 100, 99, 87, 84, 88, 99, 106, 109, 116, 109, 103, 100, 94, 86, 89, 86, 83, 81, 77, 74, 74, 77, 74, 71, 61, 57, 48, 52, 56, 66, 73, 74, 78, 91, 101, 107, 112, 113, 103, 90, 76, 69, 64, 78, 92, 93, 96, 95, 83, 66, 63, 52, 54, 65, 81, 85, 87, 91, 85, 75, 77, 79, 71, 84, 76, 76, 82, 85, 79, 84, 77, 74, 71, 67, 74, 76, 70, 76, 79, 71, 76, 84, 81, 75, 83, 81, 77, 80, 84, 90, 91, 87, 83, 80, 72, 68},
{109, 107, 99, 95, 88, 101, 93, 102, 97, 98, 85, 82, 78, 79, 84, 86, 88, 83, 80, 85, 93, 94, 96, 98, 95, 87, 86, 81, 73, 75, 75, 77, 76, 77, 73, 67, 63, 65, 67, 58, 70, 83, 80, 83, 87, 89, 74, 73, 87, 91, 81, 89, 89, 74, 68, 68, 69, 72, 74, 70, 76, 67, 67, 75, 75, 64, 66, 91, 96, 97, 105, 115, 94, 85, 85, 81, 72, 78, 80, 82, 83, 76, 77, 77, 89, 86, 90, 88, 86, 79, 81, 87, 88, 82, 81, 80, 67, 69, 78, 74},
{112, 108, 119, 124, 120, 132, 122, 114, 117, 129, 113, 116, 123, 113, 111, 113, 111, 112, 120, 145, 146, 141, 136, 128, 121, 124, 121, 126, 134, 106, 107, 118, 116, 109, 110, 98, 88, 78, 81, 80, 86, 81, 82, 84, 82, 86, 84, 85, 101, 110, 102, 107, 112, 101, 96, 94, 102, 98, 89, 88, 88, 99, 97, 100, 105, 102, 77, 76, 85, 85, 95, 114, 114, 117, 111, 110, 92, 93, 95, 99, 94, 104, 103, 110, 120, 121, 117, 120, 110, 101, 104, 115, 121, 115, 119, 122, 108, 98, 91, 76},
{123, 162, 182, 190, 211, 220, 211, 193, 205, 183, 167, 144, 146, 166, 183, 208, 239, 251, 225, 271, 264, 251, 254, 259, 258, 267, 255, 262, 272, 222, 222, 249, 278, 268, 279, 260, 243, 184, 211, 199, 188, 179, 177, 143, 125, 172, 177, 188, 208, 217, 187, 186, 209, 216, 212, 233, 237, 215, 195, 200, 171, 180, 177, 180, 194, 220, 208, 203, 198, 184, 180, 196, 192, 255, 267, 314, 310, 322, 308, 300, 235, 237, 223, 180, 175, 193, 182, 181, 213, 214, 198, 207, 215, 162, 169, 194, 181, 189, 196, 182},
{67, 70, 69, 69, 79, 76, 80, 79, 72, 61, 57, 48, 52, 56, 52, 60, 70, 75, 72, 75, 72, 70, 70, 70, 69, 67, 67, 61, 60, 60, 66, 66, 84, 89, 89, 85, 83, 77, 80, 79, 77, 79, 65, 60, 74, 79, 84, 90, 85, 75, 72, 64, 55, 58, 57, 57, 54, 56, 62, 65, 68, 67, 72, 70, 66, 62, 70, 69, 67, 72, 75, 74, 73, 71, 69, 72, 71, 71, 73, 74, 69, 66, 64, 71, 68, 67, 68, 74, 59, 60, 63, 59, 50, 54, 52, 54, 52, 69, 71, 71},
{91, 88, 67, 64, 59, 65, 75, 85, 93, 92, 83, 75, 70, 87, 95, 100, 107, 102, 89, 90, 89, 81, 81, 76, 78, 74, 77, 87, 93, 88, 93, 91, 87, 76, 71, 73, 74, 74, 81, 81, 73, 68, 64, 80, 81, 82, 87, 88, 71, 69, 69, 71, 74, 68, 67, 64, 54, 65, 81, 82, 86, 86, 86, 72, 79, 76, 84, 74, 80, 80, 86, 80, 77, 72, 72, 64, 60, 73, 73, 71, 74, 84, 89, 86, 90, 91, 86, 83, 84, 78, 80, 79, 66, 66, 63, 59, 57, 55, 54, 54},
{361, 345, 294, 347, 347, 314, 300, 279, 215, 202, 214, 241, 266, 292, 286, 321, 315, 310, 316, 321, 305, 312, 380, 372, 398, 385, 378, 295, 269, 224, 227, 208, 240, 251, 239, 240, 238, 210, 212, 223, 226, 231, 228, 250, 279, 263, 271, 301, 308, 287, 294, 280, 249, 227, 267, 268, 277, 322, 344, 348, 374, 378, 356, 325, 290, 253, 247, 223, 260, 245, 245, 238, 273, 260, 259, 271, 278, 249, 251, 250, 239, 240, 271, 251, 307, 312, 311, 296, 344, 296, 310, 309, 292, 233, 276, 251, 270, 264, 259, 230},
{437, 453, 482, 484, 500, 459, 379, 356, 333, 352, 401, 467, 472, 453, 436, 449, 387, 371, 402, 377, 345, 380, 380, 386, 416, 419, 391, 385, 358, 341, 338, 319, 315, 322, 322, 388, 426, 497, 553, 576, 550, 538, 471, 392, 367, 336, 302, 333, 409, 380, 380, 394, 374, 283, 314, 309, 301, 331, 425, 451, 444, 473, 460, 410, 387, 381, 349, 348, 308, 343, 361, 359, 442, 468, 415, 435, 429, 328, 324, 324, 265, 293, 324, 337, 366, 379, 376, 336, 340, 325, 359, 348, 384, 398, 426, 398, 392, 377, 348, 331}}

// 5 Reading of the 8 sensors, 100 samples per sensor
{{98, 107, 111, 91, 90, 101, 94, 105, 104, 111, 113, 108, 96, 118, 127, 116, 112, 112, 96, 72, 86, 88, 101, 94, 102, 95, 95, 82, 84, 79, 82, 82, 79, 74, 72, 68, 73, 73, 75, 78, 70, 72, 75, 72, 65, 67, 85, 91, 96, 101, 106, 88, 84, 84, 98, 97, 105, 106, 118, 103, 100, 88, 95, 84, 90, 96, 97, 83, 74, 61, 54, 57, 70, 73, 75, 76, 73, 63, 73, 77, 84, 87, 90, 82, 79, 69, 84, 81, 84, 87, 88, 81, 80, 81, 84, 93, 87, 95, 95, 87},
{83, 95, 95, 90, 98, 100, 94, 103, 102, 98, 102, 98, 79, 113, 114, 109, 107, 122, 94, 91, 95, 104, 85, 88, 91, 90, 77, 77, 76, 80, 83, 89, 100, 91, 87, 85, 90, 83, 88, 91, 90, 89, 83, 77, 80, 76, 98, 104, 104, 103, 103, 73, 64, 74, 79, 83, 87, 94, 85, 71, 68, 80, 81, 84, 98, 98, 86, 78, 80, 61, 57, 75, 77, 84, 88, 88, 86, 85, 77, 79, 83, 72, 75, 87, 86, 83, 91, 90, 80, 79, 81, 73, 70, 72, 72, 80, 81, 96, 95, 97},
{163, 171, 182, 173, 164, 159, 163, 143, 127, 133, 140, 152, 178, 185, 180, 172, 175, 162, 159, 165, 167, 138, 135, 156, 150, 144, 144, 134, 116, 133, 136, 150, 162, 164, 154, 148, 157, 142, 129, 132, 149, 123, 118, 130, 133, 110, 119, 126, 117, 110, 119, 127, 122, 122, 117, 138, 139, 158, 159, 168, 150, 143, 130, 135, 130, 139, 138, 136, 135, 131, 116, 114, 113, 118, 122, 124, 126, 125, 109, 107, 109, 102, 111, 106, 103, 99, 99, 83, 89, 101, 103, 106, 120, 133, 130, 130, 129, 123, 104, 95},
{197, 198, 226, 252, 256, 274, 290, 293, 304, 300, 327, 352, 421, 427, 435, 478, 469, 433, 417, 452, 392, 370, 359, 356, 319, 299, 328, 324, 333, 324, 337, 355, 327, 351, 364, 355, 361, 382, 354, 339, 345, 294, 252, 238, 263, 243, 252, 286, 290, 263, 266, 305, 305, 312, 322, 352, 330, 343, 332, 350, 334, 360, 335, 385, 373, 372, 343, 355, 312, 303, 300, 297, 264, 286, 280, 263, 247, 252, 213, 222, 216, 213, 226, 236, 242, 230, 228, 226, 238, 226, 247, 260, 261, 247, 234, 229, 210, 215, 215, 227},
{85, 87, 88, 86, 85, 84, 77, 78, 94, 101, 101, 125, 125, 112, 107, 105, 77, 69, 80, 79, 76, 74, 78, 70, 76, 76, 74, 80, 81, 79, 82, 79, 70, 69, 68, 64, 73, 73, 74, 73, 75, 74, 79, 76, 78, 74, 72, 69, 70, 74, 74, 69, 68, 69, 63, 76, 76, 80, 77, 77, 66, 77, 93, 92, 106, 111, 104, 98, 100, 88, 79, 78, 61, 72, 81, 84, 83, 83, 73, 57, 60, 65, 75, 75, 77, 74, 75, 70, 73, 72, 70, 67, 65, 74, 77, 82, 89, 100, 92, 89},
{74, 76, 75, 80, 91, 85, 78, 85, 91, 89, 94, 95, 97, 88, 92, 92, 96, 90, 102, 108, 105, 96, 108, 96, 81, 81, 81, 57, 57, 56, 64, 67, 71, 71, 68, 62, 60, 61, 61, 65, 64, 76, 74, 71, 68, 67, 54, 55, 69, 68, 72, 75, 79, 76, 77, 82, 96, 94, 93, 94, 89, 74, 75, 74, 71, 69, 66, 68, 63, 66, 66, 65, 63, 64, 61, 58, 66, 65, 67, 72, 84, 78, 86, 85, 79, 73, 88, 89, 88, 91, 86, 77, 63, 67, 73, 78, 74, 72, 65, 64},
{300, 360, 377, 385, 384, 382, 298, 278, 245, 243, 249, 251, 286, 306, 425, 428, 439, 416, 422, 410, 428, 419, 465, 444, 353, 316, 298, 234, 275, 281, 287, 277, 312, 267, 254, 258, 265, 203, 280, 292, 278, 295, 314, 248, 270, 277, 265, 285, 332, 303, 308, 334, 417, 387, 392, 402, 413, 316, 365, 364, 350, 315, 309, 279, 317, 321, 335, 335, 330, 347, 346, 323, 324, 320, 257, 251, 303, 297, 273, 266, 322, 283, 322, 327, 341, 322, 318, 289, 289, 297, 251, 298, 286, 294, 285, 324, 280, 286, 280, 278},
{481, 441, 420, 424, 487, 525, 467, 519, 521, 472, 497, 524, 465, 491, 499, 445, 426, 419, 408, 413, 409, 397, 478, 445, 434, 436, 467, 393, 418, 433, 432, 391, 395, 375, 346, 335, 368, 342, 330, 366, 365, 378, 414, 408, 345, 349, 344, 322, 372, 433, 452, 433, 502, 479, 464, 445, 475, 404, 418, 382, 378, 322, 372, 376, 415, 439, 491, 462, 434, 407, 391, 360, 350, 405, 383, 462, 446, 460, 410, 466, 472, 466, 437, 439, 397, 318, 369, 378, 405, 402, 385, 363, 361, 309, 333, 372, 348, 389, 397, 376}}

// 6 Reading of the 8 sensors, 100 samples per sensor
{{102, 96, 95, 110, 113, 112, 110, 116, 97, 90, 99, 98, 93, 101, 116, 112, 111, 113, 115, 112, 111, 115, 118, 112, 115, 127, 141, 136, 136, 146, 140, 134, 141, 138, 124, 113, 100, 89, 91, 77, 102, 98, 94, 97, 112, 95, 94, 95, 98, 85, 92, 106, 106, 105, 103, 92, 96, 106, 114, 113, 122, 105, 95, 99, 100, 98, 123, 134, 129, 129, 129, 121, 115, 123, 135, 129, 122, 117, 100, 100, 114, 108, 109, 107, 90, 89, 91, 95, 101, 105, 98, 107, 106, 103, 99, 100, 91, 91, 113, 122},
{112, 149, 151, 174, 163, 171, 153, 161, 136, 135, 120, 103, 95, 92, 104, 112, 112, 100, 97, 88, 84, 99, 103, 105, 104, 106, 109, 105, 102, 120, 135, 119, 123, 123, 101, 78, 105, 110, 115, 117, 132, 118, 112, 105, 117, 96, 98, 100, 104, 85, 90, 104, 102, 101, 111, 106, 88, 96, 102, 103, 126, 129, 122, 123, 117, 103, 98, 97, 114, 117, 109, 118, 124, 126, 124, 136, 152, 147, 143, 150, 135, 109, 119, 105, 105, 114, 111, 102, 94, 90, 88, 99, 108, 116, 124, 122, 119, 129, 121, 126},
{156, 186, 190, 184, 196, 213, 213, 218, 221, 217, 202, 186, 181, 172, 167, 187, 188, 177, 175, 178, 164, 181, 181, 171, 177, 180, 181, 186, 198, 196, 198, 175, 168, 155, 151, 139, 162, 164, 169, 179, 186, 151, 155, 160, 158, 146, 163, 172, 164, 176, 170, 162, 160, 164, 134, 173, 179, 173, 166, 180, 150, 140, 130, 145, 140, 138, 156, 161, 160, 152, 155, 135, 130, 163, 178, 177, 184, 202, 193, 186, 181, 174, 159, 124, 130, 149, 162, 161, 165, 146, 151, 163, 180, 194, 199, 182, 159, 157, 149, 165},
{360, 386, 369, 355, 358, 372, 351, 389, 423, 442, 428, 454, 431, 434, 403, 427, 401, 403, 365, 383, 378, 414, 428, 431, 418, 416, 392, 369, 371, 425, 436, 396, 392, 377, 340, 313, 370, 358, 362, 366, 345, 279, 329, 349, 360, 403, 403, 383, 378, 378, 392, 398, 394, 384, 345, 318, 340, 338, 345, 407, 387, 362, 372, 390, 324, 374, 420, 402, 407, 428, 385, 351, 372, 372, 395, 404, 395, 388, 383, 342, 345, 380, 394, 376, 381, 397, 363, 323, 307, 299, 331, 354, 384, 404, 391, 350, 333, 309, 293, 318},
{96, 97, 78, 71, 72, 85, 92, 88, 96, 98, 88, 96, 104, 104, 103, 106, 93, 96, 96, 103, 107, 105, 97, 94, 90, 90, 102, 101, 99, 100, 108, 103, 109, 110, 111, 99, 121, 115, 115, 121, 120, 100, 108, 109, 99, 105, 98, 91, 92, 99, 112, 122, 120, 118, 109, 89, 76, 88, 83, 85, 89, 86, 80, 87, 86, 81, 86, 83, 100, 105, 104, 111, 115, 102, 116, 123, 123, 125, 126, 113, 107, 98, 97, 88, 87, 97, 100, 102, 107, 106, 111, 106, 98, 101, 101, 87, 89, 103, 100, 94},
{111, 101, 108, 110, 105, 99, 96, 76, 78, 77, 79, 87, 87, 78, 79, 87, 82, 84, 90, 93, 81, 82, 83, 78, 81, 91, 89, 92, 99, 93, 87, 87, 89, 84, 89, 85, 99, 92, 87, 85, 92, 76, 79, 79, 82, 86, 91, 98, 102, 100, 104, 105, 97, 91, 90, 80, 86, 87, 91, 86, 86, 72, 65, 60, 68, 66, 79, 81, 85, 83, 83, 80, 79, 75, 72, 73, 77, 88, 89, 86, 92, 80, 69, 75, 82, 88, 95, 91, 88, 92, 84, 80, 88, 93, 88, 91, 98, 98, 90, 87},
{408, 381, 352, 360, 341, 298, 309, 300, 317, 314, 388, 369, 371, 330, 339, 262, 301, 347, 352, 423, 421, 487, 451, 445, 413, 435, 398, 419, 441, 435, 404, 345, 359, 349, 366, 390, 449, 492, 486, 454, 450, 429, 409, 406, 391, 379, 330, 242, 246, 245, 267, 280, 287, 295, 336, 333, 385, 427, 427, 402, 431, 416, 360, 367, 450, 432, 412, 422, 421, 338, 309, 308, 325, 367, 389, 464, 495, 484, 460, 434, 351, 288, 279, 283, 328, 387, 394, 393, 392, 365, 323, 354, 358, 337, 403, 428, 419, 458, 464, 405},
{498, 419, 364, 325, 417, 433, 530, 530, 523, 450, 496, 424, 438, 448, 466, 389, 442, 454, 484, 526, 535, 537, 547, 534, 519, 546, 529, 566, 576, 572, 579, 595, 596, 574, 570, 522, 447, 451, 444, 427, 464, 519, 433, 453, 466, 468, 423, 453, 459, 438, 441, 430, 393, 412, 406, 367, 491, 519, 546, 540, 551, 436, 399, 358, 394, 423, 497, 588, 584, 573, 597, 582, 488, 512, 557, 499, 474, 495, 425, 387, 420, 390, 366, 392, 357, 378, 388, 413, 419, 427, 385, 404, 391, 383, 437, 482, 476, 480, 576, 542}}

// 7 Reading of the 8 sensors, 100 samples per sensor
{{135, 121, 114, 121, 116, 119, 107, 110, 124, 135, 132, 129, 122, 85, 67, 71, 74, 76, 82, 79, 75, 74, 66, 57, 60, 67, 69, 75, 79, 74, 70, 67, 64, 73, 79, 76, 82, 85, 75, 72, 80, 82, 89, 90, 89, 99, 100, 90, 92, 90, 73, 65, 66, 71, 81, 86, 90, 92, 87, 81, 71, 63, 66, 61, 60, 79, 78, 74, 95, 99, 86, 98, 101, 86, 80, 90, 83, 80, 76, 94, 83, 86, 95, 96, 81, 81, 75, 65, 62, 61, 63, 60, 58, 70, 78, 78, 81, 80, 68, 70},
{193, 180, 134, 118, 101, 101, 92, 91, 92, 98, 101, 101, 96, 86, 70, 72, 75, 79, 70, 72, 68, 68, 63, 62, 61, 71, 75, 87, 91, 97, 88, 80, 65, 66, 61, 58, 61, 68, 62, 55, 63, 70, 70, 70, 80, 83, 83, 81, 92, 86, 81, 79, 76, 68, 73, 75, 79, 77, 88, 84, 86, 80, 83, 62, 67, 83, 84, 84, 94, 97, 81, 94, 99, 92, 87, 92, 80, 85, 87, 95, 97, 96, 95, 92, 81, 70, 70, 66, 80, 81, 84, 81, 75, 62, 75, 74, 84, 84, 82, 78},
{135, 146, 141, 133, 126, 103, 103, 98, 96, 98, 100, 90, 118, 124, 120, 149, 165, 151, 155, 165, 159, 145, 142, 131, 120, 91, 86, 134, 161, 163, 161, 159, 126, 106, 107, 107, 121, 119, 101, 97, 121, 110, 108, 119, 122, 100, 98, 101, 121, 122, 122, 119, 118, 99, 91, 94, 101, 97, 82, 87, 104, 117, 120, 120, 117, 102, 90, 84, 90, 97, 99, 90, 90, 86, 81, 77, 80, 78, 81, 86, 82, 95, 103, 98, 91, 95, 96, 90, 91, 88, 83, 62, 70, 73, 74, 83, 90, 84, 101, 106},
{196, 201, 204, 205, 202, 196, 194, 188, 177, 184, 194, 186, 233, 248, 255, 279, 300, 319, 328, 350, 377, 353, 348, 342, 323, 281, 282, 285, 323, 325, 319, 326, 299, 281, 293, 275, 291, 267, 285, 286, 383, 364, 377, 360, 343, 235, 251, 250, 265, 270, 265, 280, 279, 258, 249, 246, 211, 212, 170, 168, 174, 185, 167, 175, 180, 174, 159, 152, 146, 181, 218, 222, 219, 245, 224, 213, 226, 229, 214, 210, 183, 178, 189, 189, 182, 190, 213, 204, 195, 184, 169, 135, 131, 125, 125, 150, 139, 151, 165, 168},
{68, 76, 73, 67, 64, 64, 58, 57, 56, 53, 54, 61, 65, 68, 71, 67, 61, 59, 55, 60, 71, 71, 80, 82, 78, 67, 63, 59, 68, 67, 69, 73, 67, 53, 57, 60, 69, 68, 73, 73, 74, 63, 69, 71, 69, 66, 69, 71, 65, 64, 64, 65, 67, 72, 72, 72, 69, 61, 57, 58, 60, 58, 58, 59, 58, 65, 65, 62, 60, 61, 56, 53, 57, 56, 54, 58, 56, 52, 55, 57, 44, 50, 53, 50, 44, 48, 54, 51, 57, 58, 60, 52, 57, 52, 55, 56, 56, 53, 54, 53},
{75, 87, 84, 78, 78, 71, 67, 73, 73, 73, 74, 73, 65, 67, 76, 81, 75, 77, 76, 69, 66, 64, 64, 62, 58, 53, 57, 54, 49, 46, 57, 63, 62, 64, 67, 67, 67, 70, 70, 72, 66, 61, 71, 81, 78, 88, 87, 81, 70, 68, 55, 55, 51, 49, 53, 58, 55, 52, 50, 54, 63, 65, 68, 71, 65, 54, 51, 47, 54, 53, 47, 54, 66, 61, 62, 65, 60, 52, 52, 53, 50, 54, 50, 51, 62, 72, 71, 74, 75, 68, 58, 58, 53, 49, 53, 57, 55, 57, 55, 54},
{325, 360, 356, 326, 346, 350, 302, 356, 373, 348, 332, 376, 327, 289, 316, 320, 264, 257, 241, 220, 240, 252, 252, 249, 271, 248, 242, 231, 265, 249, 283, 283, 281, 291, 271, 247, 294, 306, 272, 272, 304, 299, 347, 349, 373, 380, 360, 321, 315, 286, 237, 245, 238, 243, 263, 313, 300, 300, 295, 282, 241, 222, 233, 291, 302, 315, 318, 304, 305, 308, 268, 330, 341, 298, 292, 305, 261, 290, 312, 317, 298, 414, 396, 388, 407, 446, 348, 342, 335, 303, 245, 209, 190, 173, 179, 213, 208, 235, 233, 279},
{437, 452, 482, 531, 507, 534, 500, 460, 484, 503, 487, 491, 503, 364, 344, 386, 399, 393, 396, 387, 343, 332, 298, 287, 274, 277, 301, 290, 299, 324, 327, 296, 326, 378, 366, 372, 392, 363, 327, 310, 344, 359, 445, 445, 455, 467, 455, 390, 371, 356, 335, 360, 353, 413, 437, 447, 435, 457, 430, 417, 398, 371, 365, 365, 354, 408, 428, 432, 463, 471, 412, 452, 482, 464, 451, 459, 428, 404, 368, 403, 369, 440, 404, 439, 423, 424, 332, 335, 278, 270, 270, 265, 316, 354, 363, 373, 375, 345, 297, 336}}

// 8 Reading of the 8 sensors, 100 samples per sensor
{{135, 102, 102, 98, 94, 97, 95, 88, 96, 91, 81, 86, 86, 77, 92, 99, 107, 105, 106, 90, 78, 63, 75, 77, 82, 84, 90, 78, 77, 75, 78, 61, 68, 77, 76, 74, 75, 70, 62, 65, 59, 63, 65, 59, 58, 64, 73, 76, 87, 87, 88, 83, 85, 78, 85, 91, 108, 106, 109, 107, 98, 91, 90, 85, 79, 88, 74, 68, 68, 77, 76, 79, 78, 77, 78, 75, 72, 77, 81, 75, 77, 88, 101, 103, 107, 108, 99, 82, 87, 88, 97, 112, 114, 109, 100, 88, 73, 86, 91, 98},
{98, 68, 73, 63, 70, 70, 68, 78, 94, 88, 86, 108, 106, 97, 104, 109, 90, 84, 80, 72, 68, 72, 82, 86, 86, 86, 104, 93, 88, 87, 89, 65, 72, 83, 92, 105, 104, 98, 101, 100, 84, 96, 112, 104, 97, 92, 116, 104, 106, 116, 128, 107, 108, 107, 113, 113, 109, 108, 114, 101, 86, 96, 105, 98, 98, 108, 105, 96, 95, 91, 77, 66, 72, 70, 77, 84, 87, 88, 89, 83, 74, 72, 71, 78, 91, 91, 108, 102, 94, 83, 83, 74, 77, 85, 89, 95, 89, 99, 91, 103},
{136, 148, 168, 179, 179, 183, 173, 163, 151, 156, 156, 146, 140, 153, 142, 129, 134, 137, 109, 114, 118, 144, 148, 158, 157, 168, 148, 145, 136, 139, 125, 121, 128, 136, 127, 123, 124, 115, 108, 113, 114, 111, 115, 112, 117, 115, 115, 130, 138, 132, 140, 149, 134, 134, 145, 147, 137, 139, 147, 131, 127, 128, 141, 134, 143, 142, 148, 135, 133, 125, 125, 112, 117, 115, 123, 117, 120, 131, 128, 125, 126, 143, 137, 144, 156, 159, 146, 134, 127, 112, 105, 100, 100, 97, 104, 114, 121, 135, 155, 152},
{330, 372, 406, 433, 409, 404, 378, 377, 352, 399, 436, 426, 395, 408, 353, 316, 294, 330, 285, 309, 293, 317, 284, 284, 272, 337, 327, 322, 313, 317, 247, 252, 281, 305, 288, 298, 323, 316, 294, 306, 298, 252, 220, 230, 233, 246, 259, 285, 290, 266, 255, 262, 239, 286, 312, 322, 310, 345, 321, 302, 308, 320, 281, 263, 264, 233, 264, 295, 298, 291, 306, 267, 235, 217, 224, 186, 195, 209, 229, 215, 230, 237, 266, 249, 288, 281, 292, 248, 246, 217, 215, 200, 230, 238, 229, 242, 241, 254, 288, 285},
{86, 86, 82, 91, 79, 81, 75, 80, 72, 85, 82, 88, 87, 81, 74, 71, 69, 66, 79, 73, 80, 78, 80, 67, 70, 67, 60, 56, 53, 55, 57, 62, 63, 64, 60, 55, 52, 47, 46, 49, 50, 52, 53, 55, 57, 59, 69, 69, 74, 70, 73, 69, 82, 85, 100, 93, 92, 81, 73, 52, 53, 57, 70, 69, 69, 82, 75, 64, 69, 74, 67, 66, 68, 69, 66, 60, 71, 73, 69, 67, 68, 68, 61, 65, 67, 68, 62, 65, 62, 60, 59, 54, 61, 65, 66, 69, 71, 65, 68, 73},
{66, 69, 69, 75, 72, 72, 77, 94, 90, 92, 96, 93, 78, 86, 92, 89, 94, 93, 88, 82, 77, 64, 64, 60, 60, 76, 77, 75, 77, 75, 73, 72, 71, 72, 72, 53, 54, 53, 50, 59, 59, 58, 61, 60, 57, 61, 58, 53, 60, 58, 58, 62, 72, 68, 69, 66, 66, 60, 73, 70, 71, 74, 75, 64, 63, 61, 54, 52, 55, 67, 70, 74, 69, 65, 65, 63, 62, 64, 63, 49, 59, 64, 65, 80, 84, 81, 76, 75, 65, 68, 66, 68, 67, 61, 52, 46, 38, 37, 45, 55},
{347, 369, 381, 394, 379, 359, 339, 389, 358, 370, 339, 366, 336, 348, 347, 354, 392, 358, 356, 344, 311, 245, 247, 233, 234, 295, 290, 303, 333, 328, 302, 289, 271, 247, 263, 255, 284, 288, 309, 317, 323, 337, 352, 331, 336, 334, 289, 263, 271, 236, 265, 276, 289, 286, 290, 271, 267, 307, 290, 285, 272, 263, 226, 237, 254, 262, 264, 265, 290, 342, 325, 322, 294, 277, 277, 288, 294, 303, 291, 209, 309, 345, 386, 432, 436, 371, 327, 302, 277, 308, 330, 368, 351, 341, 308, 277, 227, 221, 267, 288},
{530, 447, 453, 443, 384, 369, 376, 378, 389, 403, 375, 393, 412, 393, 491, 530, 599, 573, 572, 488, 424, 313, 335, 337, 326, 364, 369, 374, 425, 422, 406, 363, 354, 303, 295, 323, 330, 295, 326, 362, 311, 366, 387, 352, 358, 375, 385, 378, 410, 378, 394, 352, 344, 307, 335, 329, 468, 485, 503, 496, 477, 414, 411, 393, 385, 464, 446, 423, 446, 487, 432, 373, 365, 348, 372, 383, 417, 452, 452, 387, 399, 431, 451, 461, 467, 482, 425, 386, 443, 459, 475, 518, 521, 512, 489, 440, 400, 402, 436, 441}}

// 9 Reading of the 8 sensors, 100 samples per sensor
{{46, 49, 50, 58, 61, 59, 57, 59, 56, 47, 49, 51, 53, 54, 54, 53, 51, 44, 39, 46, 48, 49, 57, 59, 62, 57, 57, 51, 52, 50, 60, 61, 65, 69, 67, 66, 65, 62, 53, 54, 53, 58, 57, 62, 58, 55, 49, 56, 56, 60, 74, 78, 73, 71, 69, 64, 56, 58, 66, 64, 52, 53, 52, 43, 46, 45, 44, 51, 54, 51, 74, 78, 76, 76, 81, 65, 63, 61, 68, 66, 63, 63, 61, 46, 41, 45, 45, 46, 53, 53, 56, 52, 58, 55, 55, 50, 50, 43, 39, 40},
{61, 67, 69, 67, 70, 62, 55, 67, 74, 71, 74, 76, 83, 74, 78, 73, 73, 58, 64, 62, 69, 65, 62, 60, 72, 63, 66, 78, 86, 79, 82, 80, 75, 80, 86, 97, 99, 98, 88, 87, 75, 81, 80, 84, 76, 76, 74, 75, 67, 65, 107, 110, 104, 105, 124, 99, 96, 105, 117, 101, 93, 89, 85, 84, 80, 78, 76, 79, 58, 58, 61, 70, 74, 77, 79, 76, 76, 66, 63, 64, 69, 66, 63, 69, 68, 70, 71, 72, 78, 74, 70, 74, 75, 64, 73, 72, 63, 64, 62, 53},
{94, 82, 84, 83, 90, 82, 73, 73, 71, 62, 66, 74, 72, 67, 63, 55, 48, 51, 55, 62, 64, 65, 69, 70, 76, 72, 73, 73, 77, 70, 74, 72, 74, 71, 81, 84, 86, 86, 84, 79, 72, 72, 72, 75, 80, 81, 87, 88, 88, 83, 86, 78, 74, 89, 84, 94, 95, 97, 86, 88, 77, 77, 70, 68, 63, 65, 59, 62, 56, 60, 59, 73, 79, 84, 88, 86, 82, 101, 112, 121, 132, 133, 119, 106, 90, 73, 71, 68, 70, 67, 71, 91, 92, 93, 95, 95, 74, 78, 83, 87},
{71, 66, 67, 81, 103, 107, 110, 111, 100, 92, 96, 96, 90, 90, 82, 80, 77, 80, 76, 84, 87, 88, 90, 93, 96, 85, 84, 96, 97, 82, 82, 82, 76, 76, 82, 85, 87, 78, 77, 94, 93, 94, 94, 95, 91, 91, 101, 111, 112, 112, 139, 137, 148, 183, 182, 168, 168, 151, 123, 132, 124, 124, 138, 134, 117, 126, 121, 102, 88, 108, 102, 99, 116, 136, 157, 173, 179, 182, 181, 165, 156, 152, 145, 124, 103, 99, 106, 111, 111, 111, 105, 120, 115, 119, 139, 140, 128, 130, 133, 117},
{39, 42, 40, 42, 40, 36, 32, 34, 32, 37, 40, 41, 39, 41, 41, 38, 36, 35, 34, 38, 42, 44, 45, 43, 44, 43, 41, 52, 52, 49, 48, 49, 38, 40, 38, 35, 39, 38, 37, 39, 41, 36, 38, 38, 38, 41, 43, 41, 40, 39, 37, 37, 34, 37, 36, 40, 38, 42, 44, 46, 43, 47, 46, 45, 50, 53, 48, 46, 47, 38, 40, 43, 45, 52, 58, 59, 57, 55, 47, 42, 36, 41, 45, 46, 45, 45, 46, 43, 43, 42, 47, 40, 42, 44, 46, 43, 45, 43, 44, 43},
{39, 38, 33, 41, 45, 44, 44, 46, 41, 37, 40, 41, 37, 40, 47, 48, 46, 49, 47, 42, 38, 37, 36, 39, 39, 40, 40, 42, 38, 41, 43, 45, 43, 43, 40, 44, 47, 47, 45, 47, 46, 44, 44, 45, 43, 46, 46, 44, 48, 49, 49, 49, 53, 53, 52, 47, 50, 48, 46, 53, 57, 55, 55, 53, 50, 43, 41, 42, 44, 42, 43, 43, 41, 39, 37, 40, 39, 41, 39, 43, 42, 46, 43, 46, 47, 49, 49, 50, 47, 42, 37, 34, 49, 52, 52, 56, 56, 45, 44, 48},
{137, 145, 138, 201, 217, 203, 200, 218, 194, 188, 199, 203, 182, 188, 184, 178, 172, 206, 236, 232, 241, 245, 243, 218, 217, 208, 211, 210, 174, 211, 226, 229, 221, 225, 185, 178, 187, 174, 156, 164, 166, 157, 141, 140, 143, 142, 139, 163, 166, 170, 196, 200, 191, 196, 206, 164, 150, 154, 155, 181, 187, 191, 199, 198, 175, 172, 177, 163, 181, 155, 247, 242, 236, 222, 232, 143, 146, 194, 191, 198, 218, 216, 189, 207, 215, 186, 192, 190, 181, 172, 190, 193, 221, 227, 227, 231, 260, 232, 225, 243},
{260, 302, 294, 304, 287, 270, 227, 227, 225, 197, 215, 217, 220, 231, 237, 231, 223, 233, 266, 257, 262, 272, 322, 274, 285, 278, 283, 250, 236, 254, 298, 293, 267, 287, 277, 241, 256, 268, 237, 250, 268, 254, 238, 276, 261, 242, 255, 265, 241, 258, 269, 258, 263, 249, 213, 208, 204, 191, 191, 239, 231, 224, 218, 220, 163, 140, 166, 200, 234, 240, 375, 374, 363, 346, 356, 224, 227, 243, 259, 265, 266, 258, 240, 231, 229, 222, 232, 245, 242, 230, 244, 235, 255, 254, 265, 253, 276, 271, 269, 271}}

// 10 Reading of the 8 sensors, 100 samples per sensor
{{108, 108, 83, 90, 102, 114, 102, 102, 83, 87, 82, 84, 98, 96, 93, 94, 103, 93, 88, 92, 92, 93, 90, 108, 104, 106, 104, 115, 101, 106, 103, 96, 85, 85, 85, 82, 100, 107, 106, 110, 110, 95, 85, 84, 71, 77, 77, 98, 100, 104, 109, 113, 102, 104, 105, 92, 87, 78, 69, 68, 70, 75, 88, 92, 91, 94, 99, 100, 100, 98, 95, 86, 71, 63, 67, 66, 69, 66, 65, 63, 75, 86, 94, 99, 96, 92, 80, 77, 80, 98, 106, 109, 108, 123, 115, 112, 112, 111, 91, 95},
{112, 112, 122, 122, 120, 115, 103, 97, 97, 86, 85, 85, 96, 99, 99, 105, 110, 107, 102, 98, 88, 90, 92, 90, 90, 89, 91, 89, 94, 93, 99, 89, 90, 89, 89, 83, 82, 80, 79, 84, 95, 98, 100, 98, 94, 96, 90, 77, 79, 84, 70, 82, 92, 89, 83, 82, 78, 67, 77, 79, 81, 81, 85, 82, 83, 83, 81, 80, 81, 91, 89, 86, 80, 72, 57, 64, 75, 76, 78, 76, 74, 64, 69, 68, 66, 65, 71, 68, 69, 71, 76, 70, 69, 68, 72, 61, 71, 67, 70, 76},
{191, 191, 116, 135, 143, 195, 155, 125, 142, 145, 152, 159, 154, 142, 133, 133, 131, 151, 149, 156, 166, 167, 170, 167, 159, 146, 151, 142, 162, 172, 164, 160, 176, 157, 147, 138, 143, 119, 125, 153, 171, 174, 171, 168, 139, 143, 137, 131, 147, 148, 130, 131, 154, 146, 155, 161, 156, 130, 123, 119, 113, 112, 121, 129, 122, 115, 117, 125, 123, 123, 126, 123, 111, 101, 122, 122, 133, 149, 151, 152, 148, 135, 123, 128, 118, 125, 137, 159, 161, 165, 163, 156, 153, 144, 140, 167, 171, 160, 178, 172},
{205, 205, 94, 157, 175, 202, 212, 221, 242, 248, 273, 303, 297, 285, 291, 298, 266, 286, 330, 354, 343, 335, 357, 322, 268, 418, 446, 421, 429, 483, 379, 352, 381, 385, 344, 319, 345, 306, 284, 271, 282, 277, 279, 281, 278, 297, 297, 309, 302, 283, 287, 298, 312, 342, 382, 358, 322, 281, 265, 208, 208, 235, 254, 254, 250, 260, 262, 301, 329, 365, 345, 331, 320, 286, 294, 303, 319, 333, 319, 299, 302, 283, 284, 294, 308, 312, 334, 335, 336, 342, 347, 338, 302, 323, 295, 356, 354, 378, 385, 383},
{66, 66, 43, 53, 55, 65, 64, 61, 61, 69, 75, 75, 77, 79, 78, 76, 78, 79, 80, 81, 80, 88, 89, 93, 89, 111, 102, 103, 100, 105, 84, 88, 91, 89, 85, 77, 85, 75, 75, 78, 82, 78, 85, 86, 83, 82, 77, 73, 74, 80, 83, 85, 84, 79, 74, 70, 74, 72, 71, 80, 76, 71, 70, 72, 58, 70, 68, 69, 76, 77, 66, 68, 66, 56, 59, 61, 60, 63, 61, 63, 67, 69, 68, 71, 66, 64, 66, 76, 78, 88, 96, 93, 91, 101, 97, 86, 93, 90, 82, 83},
{85, 85, 73, 77, 86, 84, 80, 76, 82, 83, 77, 75, 81, 82, 78, 73, 74, 66, 58, 61, 62, 66, 66, 76, 76, 79, 74, 74, 71, 73, 70, 71, 72, 66, 62, 66, 65, 60, 74, 80, 75, 75, 74, 61, 60, 70, 71, 83, 94, 90, 83, 82, 71, 58, 60, 61, 65, 64, 66, 67, 74, 73, 77, 78, 75, 67, 66, 68, 66, 67, 70, 72, 65, 62, 61, 59, 53, 62, 62, 75, 76, 80, 78, 82, 68, 71, 74, 75, 74, 74, 78, 72, 78, 87, 89, 88, 91, 84, 73, 84},
{334, 334, 254, 303, 351, 282, 291, 326, 341, 346, 351, 352, 300, 294, 274, 266, 262, 280, 306, 305, 380, 390, 374, 394, 392, 328, 324, 349, 301, 353, 344, 318, 321, 316, 265, 270, 317, 285, 367, 371, 369, 357, 375, 318, 312, 325, 305, 316, 336, 335, 321, 318, 289, 255, 264, 253, 278, 278, 261, 266, 282, 277, 342, 363, 360, 365, 352, 299, 287, 305, 286, 274, 280, 260, 233, 221, 247, 257, 277, 315, 364, 384, 388, 403, 377, 370, 345, 329, 328, 344, 353, 350, 420, 442, 429, 409, 407, 360, 326, 412},
{446, 446, 318, 403, 426, 418, 389, 406, 389, 389, 369, 389, 390, 364, 360, 369, 413, 395, 405, 419, 461, 458, 463, 549, 537, 505, 495, 548, 434, 485, 470, 450, 397, 406, 368, 360, 414, 392, 435, 474, 483, 442, 445, 451, 389, 396, 395, 476, 448, 473, 557, 565, 501, 513, 514, 407, 396, 406, 365, 359, 362, 349, 402, 419, 430, 447, 480, 461, 467, 441, 414, 373, 347, 296, 334, 349, 356, 326, 341, 347, 371, 444, 452, 488, 469, 452, 444, 436, 438, 501, 562, 512, 530, 565, 548, 555, 556, 548, 490, 485}}

// 11 Reading of the 8 sensors, 100 samples per sensor
{{129, 109, 115, 157, 166, 158, 154, 155, 113, 90, 103, 109, 105, 121, 118, 115, 111, 106, 91, 102, 101, 97, 96, 96, 88, 90, 93, 93, 92, 94, 86, 82, 84, 81, 77, 80, 86, 89, 90, 95, 96, 99, 125, 126, 130, 132, 139, 114, 109, 108, 109, 114, 115, 120, 116, 112, 92, 89, 80, 77, 82, 81, 78, 84, 89, 93, 100, 97, 91, 88, 75, 67, 68, 90, 95, 95, 96, 101, 85, 80, 79, 84, 78, 87, 88, 94, 91, 102, 99, 95, 95, 91, 90, 86, 90, 81, 83, 67, 64, 63},
{158, 139, 109, 120, 115, 121, 122, 132, 118, 120, 126, 136, 124, 118, 113, 113, 101, 102, 104, 107, 104, 105, 105, 104, 107, 102, 91, 89, 83, 73, 72, 79, 83, 91, 98, 90, 98, 124, 122, 116, 119, 106, 78, 78, 80, 74, 86, 82, 89, 93, 104, 105, 114, 116, 120, 114, 113, 107, 97, 100, 105, 104, 115, 118, 114, 107, 101, 82, 72, 71, 80, 90, 94, 119, 119, 113, 111, 116, 96, 88, 106, 107, 93, 101, 109, 102, 98, 102, 97, 95, 86, 82, 89, 91, 86, 86, 94, 85, 73, 80},
{156, 163, 145, 140, 128, 140, 140, 161, 174, 191, 197, 202, 190, 182, 166, 166, 158, 157, 146, 166, 152, 155, 180, 206, 197, 202, 205, 186, 177, 178, 177, 177, 176, 159, 152, 157, 139, 165, 160, 168, 171, 168, 145, 154, 141, 129, 132, 145, 150, 155, 143, 156, 160, 155, 175, 181, 191, 195, 202, 179, 199, 194, 181, 176, 182, 148, 130, 124, 121, 123, 128, 137, 130, 130, 146, 150, 154, 154, 154, 145, 145, 147, 160, 176, 175, 173, 158, 156, 127, 111, 104, 114, 98, 109, 112, 118, 157, 156, 155, 151},
{258, 281, 291, 302, 315, 261, 248, 290, 360, 358, 418, 521, 508, 474, 469, 479, 361, 344, 332, 377, 325, 324, 350, 359, 308, 329, 333, 364, 403, 423, 405, 413, 362, 317, 321, 342, 370, 391, 380, 376, 393, 344, 333, 328, 316, 252, 249, 245, 260, 238, 207, 266, 264, 244, 258, 276, 295, 305, 335, 323, 333, 293, 294, 333, 349, 354, 337, 342, 308, 300, 289, 292, 257, 242, 261, 243, 238, 267, 267, 236, 252, 268, 284, 310, 326, 353, 348, 356, 326, 306, 280, 294, 272, 262, 280, 291, 365, 355, 383, 375},
{59, 70, 79, 87, 90, 77, 86, 85, 87, 90, 106, 96, 99, 95, 100, 84, 91, 81, 91, 92, 107, 105, 117, 108, 104, 104, 100, 87, 87, 82, 64, 61, 72, 71, 74, 72, 75, 68, 72, 69, 68, 65, 71, 68, 66, 73, 86, 78, 83, 89, 85, 76, 89, 88, 101, 101, 103, 98, 98, 85, 89, 98, 101, 102, 103, 98, 85, 75, 68, 66, 68, 67, 68, 70, 67, 62, 63, 62, 64, 60, 60, 64, 73, 74, 75, 76, 71, 65, 64, 66, 64, 67, 70, 77, 78, 81, 83, 83, 75, 71},
{75, 83, 85, 92, 90, 93, 84, 81, 67, 76, 80, 80, 88, 122, 122, 114, 115, 121, 86, 79, 88, 88, 71, 70, 68, 60, 61, 60, 62, 69, 73, 72, 79, 80, 77, 76, 84, 80, 100, 106, 109, 107, 112, 91, 81, 81, 94, 92, 93, 112, 132, 132, 133, 139, 128, 107, 94, 97, 94, 91, 85, 84, 74, 66, 64, 71, 74, 68, 72, 77, 75, 71, 71, 78, 76, 76, 78, 80, 74, 71, 75, 76, 80, 78, 76, 69, 72, 74, 77, 80, 76, 78, 72, 67, 70, 73, 60, 60, 60, 57},
{382, 434, 476, 521, 546, 522, 442, 423, 377, 345, 341, 338, 374, 398, 381, 392, 402, 341, 304, 315, 315, 310, 296, 318, 306, 296, 337, 348, 346, 369, 346, 297, 285, 263, 242, 304, 309, 297, 336, 355, 333, 382, 445, 435, 412, 425, 444, 389, 406, 488, 545, 528, 545, 538, 468, 372, 329, 380, 363, 370, 396, 403, 328, 324, 312, 349, 355, 350, 345, 407, 346, 329, 325, 334, 253, 297, 314, 331, 314, 326, 323, 359, 404, 422, 407, 444, 423, 396, 420, 419, 366, 374, 351, 294, 294, 324, 295, 293, 323, 335},
{536, 510, 480, 567, 589, 540, 562, 595, 473, 441, 509, 514, 503, 524, 497, 435, 415, 363, 390, 437, 465, 484, 492, 468, 440, 461, 448, 438, 424, 431, 369, 353, 362, 396, 386, 384, 421, 418, 389, 385, 413, 426, 596, 606, 643, 693, 689, 552, 534, 505, 448, 490, 509, 532, 522, 496, 416, 452, 422, 412, 444, 445, 375, 371, 371, 465, 505, 524, 521, 565, 456, 402, 365, 357, 338, 379, 362, 374, 376, 349, 279, 365, 399, 452, 438, 514, 508, 511, 491, 499, 453, 407, 416, 410, 389, 388, 386, 313, 296, 309}}

// 12 Reading of the 8 sensors, 100 samples per sensor
{{93, 111, 103, 107, 97, 119, 114, 115, 113, 119, 107, 96, 94, 93, 108, 114, 114, 114, 118, 100, 93, 88, 85, 85, 88, 78, 80, 80, 72, 74, 80, 83, 84, 92, 91, 89, 87, 82, 76, 68, 70, 70, 73, 75, 74, 73, 82, 85, 80, 80, 74, 75, 75, 80, 80, 82, 70, 76, 81, 82, 85, 86, 77, 67, 64, 58, 62, 71, 78, 83, 86, 86, 85, 79, 88, 88, 85, 88, 87, 77, 72, 74, 69, 71, 78, 81, 83, 85, 88, 79, 80, 82, 74, 74, 76, 73, 66, 67, 62, 61},
{97, 107, 106, 111, 108, 105, 88, 75, 65, 58, 56, 52, 48, 51, 58, 65, 65, 69, 80, 82, 80, 86, 86, 75, 72, 70, 72, 71, 76, 76, 83, 86, 95, 94, 93, 96, 89, 89, 97, 94, 84, 86, 104, 103, 101, 104, 103, 80, 74, 82, 86, 85, 83, 94, 92, 91, 89, 89, 75, 68, 76, 74, 72, 73, 72, 56, 62, 63, 92, 93, 100, 96, 97, 64, 68, 78, 78, 73, 75, 84, 67, 66, 69, 88, 81, 89, 100, 103, 94, 91, 103, 99, 96, 95, 95, 82, 74, 75, 72, 81},
{118, 122, 174, 172, 180, 193, 196, 151, 149, 138, 136, 125, 134, 142, 139, 127, 182, 177, 189, 195, 189, 180, 186, 170, 167, 182, 145, 143, 152, 156, 154, 152, 149, 151, 147, 139, 137, 128, 123, 129, 120, 121, 135, 131, 129, 147, 153, 147, 156, 156, 140, 130, 125, 128, 114, 111, 130, 144, 128, 134, 171, 159, 159, 159, 157, 115, 120, 100, 114, 111, 117, 114, 122, 106, 125, 129, 134, 129, 160, 143, 159, 156, 154, 118, 120, 119, 112, 115, 117, 124, 92, 99, 104, 104, 117, 129, 138, 138, 139, 133},
{296, 314, 327, 323, 319, 310, 328, 321, 313, 289, 336, 298, 291, 311, 289, 256, 287, 284, 270, 286, 263, 292, 328, 326, 326, 354, 361, 346, 366, 375, 392, 346, 354, 342, 327, 295, 295, 259, 276, 313, 279, 291, 307, 277, 241, 257, 247, 215, 269, 267, 261, 255, 259, 238, 218, 237, 256, 320, 323, 344, 357, 350, 325, 311, 321, 287, 360, 348, 336, 309, 308, 226, 239, 244, 288, 283, 280, 262, 294, 273, 287, 289, 286, 258, 273, 317, 315, 316, 298, 271, 205, 181, 207, 219, 245, 252, 268, 233, 244, 236},
{63, 64, 74, 77, 78, 74, 77, 74, 72, 74, 82, 92, 92, 91, 89, 87, 77, 73, 68, 73, 64, 59, 62, 63, 67, 68, 68, 69, 70, 61, 71, 68, 72, 76, 77, 74, 74, 67, 73, 75, 71, 75, 75, 65, 67, 65, 61, 58, 61, 60, 59, 63, 64, 68, 72, 80, 83, 84, 79, 68, 58, 52, 56, 63, 72, 79, 81, 77, 71, 63, 60, 52, 55, 55, 59, 57, 61, 60, 63, 63, 62, 71, 68, 64, 65, 76, 67, 71, 70, 66, 48, 49, 47, 49, 52, 56, 60, 61, 62, 60},
{69, 82, 80, 77, 81, 84, 79, 82, 81, 105, 112, 106, 116, 118, 106, 97, 103, 90, 93, 82, 75, 65, 64, 67, 75, 77, 75, 75, 72, 65, 67, 72, 77, 76, 79, 77, 72, 64, 62, 61, 83, 82, 83, 81, 78, 53, 61, 67, 71, 70, 70, 76, 71, 67, 67, 68, 63, 61, 62, 60, 59, 61, 62, 57, 65, 66, 59, 65, 72, 66, 63, 62, 70, 68, 69, 70, 68, 55, 56, 54, 59, 69, 65, 61, 58, 56, 52, 54, 57, 58, 59, 62, 60, 62, 67, 62, 55, 64, 70, 64},
{368, 354, 338, 348, 299, 295, 362, 376, 372, 456, 487, 454, 473, 462, 505, 487, 465, 469, 482, 341, 310, 355, 322, 312, 364, 360, 318, 313, 362, 333, 349, 341, 369, 327, 306, 278, 289, 237, 255, 262, 323, 341, 341, 317, 340, 296, 302, 334, 350, 329, 331, 345, 324, 309, 306, 291, 230, 260, 305, 281, 305, 302, 265, 212, 284, 280, 298, 305, 293, 237, 229, 276, 327, 340, 338, 341, 306, 284, 288, 286, 300, 279, 271, 251, 287, 300, 307, 301, 352, 320, 307, 352, 386, 399, 407, 387, 368, 349, 284, 277},
{439, 459, 444, 448, 373, 447, 462, 486, 482, 548, 532, 502, 495, 488, 542, 527, 514, 525, 590, 478, 511, 543, 529, 490, 512, 470, 452, 461, 451, 492, 526, 491, 510, 517, 490, 437, 433, 379, 361, 358, 404, 421, 427, 399, 365, 325, 364, 384, 381, 386, 401, 497, 484, 487, 458, 419, 233, 261, 341, 351, 386, 401, 390, 318, 356, 406, 417, 459, 468, 472, 423, 448, 444, 428, 458, 469, 434, 506, 503, 463, 436, 432, 318, 315, 305, 324, 308, 295, 336, 318, 344, 389, 385, 407, 428, 386, 370, 358, 306, 275}}

// 13 Reading of the 8 sensors, 100 samples per sensor
{{118, 119, 121, 114, 97, 87, 81, 89, 118, 116, 139, 144, 137, 117, 109, 72, 64, 95, 109, 133, 134, 159, 160, 158, 146, 157, 140, 128, 118, 109, 108, 116, 125, 131, 136, 143, 140, 148, 153, 164, 165, 160, 155, 143, 136, 115, 106, 90, 114, 115, 113, 138, 144, 141, 131, 154, 147, 138, 143, 145, 161, 189, 206, 197, 197, 175, 136, 116, 103, 106, 100, 87, 78, 83, 108, 117, 121, 124, 137, 135, 126, 128, 150, 139, 132, 131, 128, 124, 127, 111, 115, 147, 137, 138, 146, 156, 145, 144, 141, 146},
{112, 103, 103, 100, 93, 90, 96, 94, 73, 84, 92, 87, 99, 104, 99, 94, 94, 76, 76, 71, 68, 83, 84, 86, 94, 93, 83, 82, 81, 72, 72, 71, 78, 81, 82, 85, 81, 74, 85, 84, 90, 96, 101, 89, 92, 83, 77, 66, 68, 68, 72, 77, 81, 80, 85, 77, 103, 105, 103, 100, 105, 90, 86, 93, 100, 96, 88, 89, 84, 81, 82, 81, 84, 77, 68, 75, 73, 71, 78, 85, 86, 82, 94, 93, 89, 89, 90, 80, 81, 85, 80, 81, 83, 83, 74, 70, 68, 56, 52, 51},
{357, 358, 351, 392, 389, 380, 381, 395, 333, 366, 385, 364, 346, 337, 322, 292, 283, 266, 320, 298, 323, 343, 334, 277, 290, 251, 255, 287, 295, 271, 276, 262, 252, 321, 327, 326, 338, 320, 295, 295, 307, 307, 339, 310, 319, 302, 328, 299, 285, 282, 307, 262, 256, 279, 269, 279, 327, 336, 317, 342, 360, 325, 334, 344, 330, 272, 252, 244, 264, 253, 305, 356, 363, 343, 349, 318, 250, 252, 274, 269, 284, 305, 330, 328, 321, 321, 303, 335, 341, 344, 343, 349, 294, 276, 274, 246, 249, 221, 234, 222},
{302, 263, 262, 290, 290, 280, 267, 285, 270, 278, 264, 258, 248, 236, 206, 204, 212, 231, 242, 313, 301, 310, 297, 288, 258, 274, 272, 265, 263, 266, 257, 256, 269, 303, 264, 265, 292, 299, 278, 279, 271, 254, 222, 197, 191, 198, 174, 174, 183, 223, 222, 226, 230, 231, 216, 236, 252, 250, 241, 256, 228, 206, 213, 236, 247, 249, 250, 258, 251, 220, 232, 260, 244, 229, 231, 241, 209, 203, 216, 203, 180, 173, 193, 180, 178, 175, 173, 174, 191, 202, 210, 212, 199, 189, 185, 191, 195, 200, 211, 212},
{75, 68, 78, 84, 85, 75, 78, 69, 62, 59, 76, 69, 68, 72, 72, 57, 61, 60, 56, 59, 58, 66, 69, 68, 73, 70, 62, 58, 56, 50, 52, 49, 49, 51, 45, 43, 47, 55, 56, 57, 58, 60, 56, 57, 57, 57, 52, 55, 56, 60, 63, 61, 54, 49, 45, 54, 61, 61, 65, 66, 55, 51, 55, 54, 57, 58, 55, 56, 61, 60, 59, 64, 61, 54, 45, 55, 51, 52, 57, 61, 57, 57, 61, 58, 54, 55, 53, 46, 47, 53, 49, 50, 53, 54, 48, 46, 42, 38, 37, 39},
{68, 70, 69, 86, 75, 74, 75, 77, 55, 51, 51, 50, 44, 44, 47, 49, 48, 48, 48, 56, 64, 76, 75, 86, 84, 79, 71, 72, 58, 50, 53, 49, 54, 60, 62, 57, 60, 65, 58, 60, 59, 57, 52, 56, 57, 55, 52, 48, 44, 40, 41, 45, 50, 47, 48, 47, 46, 43, 52, 53, 52, 54, 53, 44, 46, 48, 46, 51, 54, 50, 50, 57, 52, 54, 55, 54, 45, 51, 47, 46, 52, 52, 47, 48, 46, 44, 41, 44, 47, 46, 44, 50, 47, 42, 43, 44, 39, 37, 38, 40},
{81, 86, 86, 134, 123, 127, 126, 132, 86, 82, 89, 95, 85, 88, 95, 93, 89, 90, 85, 100, 98, 117, 114, 131, 124, 125, 107, 106, 86, 77, 70, 67, 79, 101, 99, 99, 113, 118, 101, 101, 99, 86, 83, 82, 89, 86, 86, 79, 81, 69, 68, 76, 76, 72, 74, 78, 70, 62, 71, 74, 77, 79, 78, 70, 75, 72, 81, 84, 87, 78, 77, 84, 80, 83, 93, 93, 75, 81, 89, 93, 94, 100, 104, 95, 82, 78, 72, 56, 53, 57, 59, 59, 60, 64, 68, 76, 75, 79, 82, 83},
{82, 82, 83, 109, 115, 124, 132, 142, 129, 136, 163, 164, 158, 159, 149, 97, 99, 117, 113, 130, 134, 183, 175, 179, 170, 192, 137, 133, 148, 150, 135, 138, 163, 147, 145, 135, 180, 161, 162, 158, 153, 113, 106, 104, 131, 126, 154, 179, 176, 163, 161, 141, 112, 112, 121, 130, 108, 114, 135, 131, 131, 145, 164, 155, 148, 157, 154, 128, 119, 126, 110, 94, 95, 107, 105, 102, 104, 118, 107, 107, 106, 117, 105, 110, 116, 129, 120, 118, 127, 125, 112, 113, 124, 120, 119, 121, 140, 146, 142, 147}}

// 14 Reading of the 8 sensors, 100 samples per sensor
{{183, 154, 163, 173, 167, 199, 211, 201, 210, 215, 185, 173, 148, 142, 142, 149, 150, 164, 143, 130, 118, 105, 103, 123, 125, 131, 147, 148, 143, 134, 129, 120, 120, 105, 111, 114, 117, 135, 138, 137, 132, 134, 109, 128, 126, 129, 116, 99, 86, 129, 129, 138, 143, 142, 147, 150, 143, 159, 162, 143, 141, 142, 129, 113, 93, 99, 104, 102, 105, 96, 94, 102, 94, 106, 107, 102, 107, 104, 92, 98, 118, 99, 106, 103, 97, 70, 79, 69, 70, 72, 80, 70, 72, 92, 93, 86, 95, 96, 71, 100},
{127, 119, 117, 125, 120, 127, 132, 121, 118, 117, 103, 98, 97, 79, 85, 92, 87, 86, 83, 91, 81, 87, 80, 88, 76, 84, 78, 84, 93, 93, 97, 96, 94, 81, 80, 68, 73, 78, 73, 76, 76, 77, 74, 76, 71, 82, 80, 78, 79, 76, 75, 76, 77, 74, 76, 67, 62, 62, 61, 63, 70, 74, 70, 72, 70, 61, 68, 75, 80, 78, 77, 72, 63, 64, 77, 76, 84, 88, 84, 70, 71, 58, 56, 56, 57, 57, 64, 65, 61, 72, 78, 74, 78, 82, 75, 75, 73, 74, 75, 76},
{458, 460, 477, 456, 419, 443, 483, 430, 430, 410, 377, 296, 314, 267, 273, 302, 290, 335, 385, 397, 374, 382, 343, 304, 275, 302, 312, 342, 399, 425, 421, 406, 376, 313, 287, 255, 263, 335, 320, 321, 336, 340, 272, 280, 289, 278, 254, 242, 261, 262, 287, 361, 378, 371, 360, 346, 287, 304, 302, 292, 312, 306, 266, 283, 314, 307, 308, 326, 310, 281, 260, 243, 225, 233, 259, 259, 271, 259, 265, 265, 275, 290, 320, 320, 296, 302, 275, 311, 293, 318, 354, 372, 323, 330, 309, 241, 221, 266, 260, 264},
{432, 428, 396, 397, 426, 482, 501, 507, 469, 419, 355, 357, 321, 369, 386, 390, 383, 419, 424, 444, 443, 438, 389, 342, 301, 305, 283, 285, 360, 377, 402, 406, 396, 351, 423, 401, 413, 421, 414, 348, 349, 361, 339, 321, 305, 293, 254, 300, 303, 279, 315, 360, 363, 383, 381, 355, 308, 283, 261, 286, 314, 319, 307, 320, 334, 333, 328, 345, 322, 275, 246, 228, 212, 198, 204, 212, 223, 216, 236, 264, 261, 296, 289, 275, 259, 262, 223, 275, 271, 263, 245, 255, 192, 245, 252, 236, 269, 288, 242, 242},
{118, 118, 121, 119, 108, 119, 115, 104, 90, 83, 69, 70, 71, 82, 85, 86, 85, 92, 89, 99, 96, 96, 92, 86, 76, 81, 81, 77, 86, 84, 78, 85, 83, 78, 90, 89, 84, 85, 89, 77, 86, 93, 91, 87, 82, 78, 70, 77, 71, 70, 69, 73, 73, 73, 77, 73, 67, 74, 74, 71, 91, 89, 78, 82, 80, 68, 73, 78, 72, 73, 68, 63, 57, 59, 58, 50, 49, 53, 50, 54, 55, 58, 50, 50, 53, 56, 59, 76, 83, 81, 77, 75, 60, 52, 56, 60, 58, 58, 59, 50},
{105, 106, 91, 84, 70, 65, 74, 84, 88, 88, 99, 95, 86, 93, 97, 86, 83, 90, 84, 80, 82, 76, 68, 73, 71, 68, 64, 63, 56, 55, 73, 74, 76, 74, 77, 58, 57, 80, 83, 82, 87, 93, 79, 75, 71, 70, 60, 49, 49, 55, 52, 51, 58, 68, 70, 70, 74, 71, 62, 54, 69, 65, 64, 62, 72, 64, 68, 67, 71, 68, 63, 60, 59, 58, 68, 66, 72, 78, 76, 68, 69, 62, 54, 54, 47, 48, 52, 59, 68, 74, 72, 70, 66, 66, 66, 65, 64, 65, 55, 51},
{172, 176, 149, 166, 138, 129, 134, 168, 160, 158, 166, 178, 146, 162, 161, 147, 124, 130, 109, 117, 126, 125, 122, 115, 119, 126, 121, 133, 134, 127, 136, 141, 133, 132, 132, 105, 101, 153, 157, 156, 168, 184, 147, 136, 139, 126, 98, 78, 84, 80, 77, 79, 93, 111, 108, 105, 115, 113, 95, 94, 120, 114, 104, 104, 116, 94, 92, 93, 105, 96, 106, 111, 117, 113, 115, 101, 108, 103, 98, 94, 95, 72, 73, 71, 74, 83, 94, 95, 121, 123, 122, 125, 125, 109, 111, 111, 103, 105, 96, 85},
{189, 198, 208, 201, 156, 184, 171, 174, 170, 185, 165, 179, 165, 162, 163, 155, 142, 158, 156, 130, 144, 139, 121, 118, 139, 127, 119, 124, 157, 136, 148, 149, 145, 106, 119, 98, 130, 165, 171, 164, 173, 157, 115, 106, 119, 110, 99, 94, 137, 136, 134, 136, 161, 128, 121, 121, 123, 110, 118, 113, 117, 128, 121, 109, 107, 103, 94, 80, 86, 83, 102, 96, 97, 109, 124, 103, 112, 123, 112, 107, 110, 99, 93, 89, 81, 89, 100, 90, 93, 101, 104, 92, 95, 115, 127, 120, 125, 132, 113, 105}}

// 15 Reading of the 8 sensors, 100 samples per sensor
{{85, 74, 65, 78, 79, 71, 88, 90, 79, 82, 89, 69, 98, 115, 115, 113, 125, 105, 85, 81, 76, 46, 40, 56, 57, 60, 73, 72, 68, 71, 81, 73, 80, 87, 86, 78, 74, 76, 75, 76, 73, 90, 82, 68, 72, 82, 66, 67, 69, 62, 66, 64, 63, 64, 87, 74, 75, 85, 84, 60, 64, 71, 61, 63, 81, 78, 70, 73, 72, 64, 63, 67, 87, 88, 82, 82, 82, 75, 75, 75, 91, 88, 76, 73, 84, 69, 69, 65, 80, 66, 64, 67, 83, 71, 71, 71, 82, 70, 64, 68},
{77, 75, 71, 69, 68, 65, 95, 95, 97, 99, 99, 73, 66, 73, 76, 75, 71, 77, 69, 61, 61, 59, 57, 63, 63, 67, 64, 65, 63, 72, 72, 82, 94, 92, 86, 87, 82, 68, 69, 68, 64, 76, 68, 65, 70, 70, 55, 62, 62, 55, 55, 50, 51, 67, 73, 75, 78, 73, 61, 62, 66, 65, 65, 72, 76, 71, 75, 81, 76, 71, 68, 69, 74, 75, 70, 74, 73, 60, 60, 70, 71, 66, 73, 77, 72, 68, 67, 60, 59, 55, 54, 57, 62, 61, 58, 64, 78, 80, 78, 81},
{326, 336, 287, 290, 291, 329, 421, 427, 421, 432, 408, 364, 344, 387, 370, 382, 317, 371, 349, 340, 334, 330, 297, 268, 297, 285, 281, 286, 291, 285, 280, 308, 320, 344, 348, 357, 349, 318, 290, 270, 285, 306, 306, 333, 412, 390, 377, 382, 353, 254, 273, 247, 286, 355, 356, 360, 365, 347, 311, 316, 311, 296, 295, 283, 271, 253, 273, 260, 244, 310, 310, 332, 346, 339, 295, 319, 298, 275, 279, 277, 255, 254, 251, 261, 237, 219, 195, 199, 174, 184, 182, 183, 162, 167, 182, 220, 262, 280, 288, 284},
{205, 216, 217, 235, 238, 234, 265, 287, 289, 293, 298, 299, 293, 284, 296, 334, 321, 375, 387, 396, 360, 346, 283, 276, 276, 269, 268, 279, 304, 276, 272, 302, 310, 355, 408, 436, 431, 409, 342, 284, 278, 306, 327, 337, 385, 360, 338, 334, 318, 266, 318, 291, 284, 306, 308, 272, 263, 295, 286, 281, 270, 266, 233, 234, 214, 205, 218, 208, 186, 220, 223, 220, 215, 225, 192, 209, 225, 241, 248, 266, 247, 257, 235, 229, 198, 224, 198, 201, 195, 205, 183, 186, 186, 194, 189, 196, 214, 209, 201, 212},
{66, 65, 70, 78, 75, 71, 82, 80, 72, 73, 79, 72, 74, 75, 73, 76, 78, 89, 92, 92, 84, 85, 72, 73, 71, 72, 63, 72, 69, 67, 67, 75, 65, 85, 102, 103, 101, 106, 88, 73, 68, 72, 68, 68, 74, 75, 71, 72, 73, 62, 64, 60, 53, 53, 67, 72, 74, 73, 72, 65, 72, 70, 70, 71, 65, 52, 57, 64, 61, 70, 71, 67, 62, 64, 57, 56, 57, 57, 56, 55, 57, 59, 58, 57, 55, 48, 48, 52, 55, 55, 57, 55, 55, 57, 59, 59, 63, 59, 55, 57},
{93, 92, 100, 82, 88, 93, 98, 93, 96, 97, 95, 97, 94, 104, 101, 95, 113, 121, 110, 113, 111, 103, 102, 103, 104, 107, 104, 95, 98, 87, 91, 81, 82, 118, 131, 127, 130, 142, 120, 110, 121, 130, 125, 117, 123, 112, 99, 88, 98, 90, 89, 102, 103, 96, 96, 115, 109, 119, 119, 117, 103, 95, 78, 74, 96, 90, 93, 103, 106, 97, 104, 101, 88, 87, 77, 78, 78, 80, 76, 78, 67, 69, 72, 76, 80, 90, 88, 84, 80, 76, 63, 64, 74, 78, 72, 76, 75, 65, 67, 68},
{187, 177, 179, 153, 176, 191, 186, 189, 202, 201, 184, 196, 203, 197, 166, 167, 208, 217, 227, 234, 238, 218, 233, 217, 219, 208, 223, 194, 200, 187, 207, 167, 179, 205, 224, 208, 213, 233, 210, 195, 205, 236, 218, 221, 228, 218, 175, 179, 187, 171, 175, 191, 167, 149, 158, 199, 189, 220, 222, 224, 200, 196, 151, 142, 146, 124, 127, 133, 144, 155, 159, 158, 161, 168, 146, 147, 134, 139, 123, 125, 132, 142, 144, 152, 166, 162, 162, 152, 148, 138, 135, 130, 165, 161, 158, 178, 175, 150, 153, 151},
{68, 80, 85, 79, 90, 92, 76, 93, 102, 99, 106, 116, 105, 98, 93, 96, 84, 84, 81, 83, 66, 62, 61, 58, 63, 69, 78, 78, 82, 75, 78, 74, 72, 83, 89, 88, 84, 88, 83, 81, 75, 84, 84, 76, 80, 81, 75, 69, 72, 66, 85, 81, 80, 79, 80, 58, 68, 68, 65, 66, 72, 71, 71, 69, 68, 58, 47, 55, 60, 62, 66, 69, 61, 60, 55, 52, 49, 67, 70, 73, 78, 80, 67, 61, 77, 79, 77, 77, 79, 58, 63, 63, 69, 72, 75, 62, 68, 82, 83, 83}}

// 16 Reading of the 8 sensors, 100 samples per sensor
{{89, 73, 84, 85, 93, 102, 113, 111, 120, 135, 153, 185, 231, 233, 240, 234, 203, 259, 265, 253, 252, 260, 160, 164, 162, 161, 182, 179, 184, 193, 203, 193, 191, 187, 172, 151, 216, 232, 219, 218, 234, 163, 157, 187, 215, 198, 213, 202, 174, 153, 156, 137, 157, 151, 139, 143, 152, 127, 129, 145, 134, 133, 159, 168, 151, 154, 157, 124, 112, 130, 154, 147, 154, 163, 167, 154, 154, 157, 157, 143, 143, 159, 154, 146, 184, 177, 162, 174, 191, 160, 164, 156, 148, 150, 146, 134, 142, 166, 143, 138},
{51, 56, 60, 73, 78, 77, 79, 76, 71, 94, 94, 98, 104, 101, 102, 101, 92, 102, 113, 100, 101, 106, 96, 87, 80, 77, 77, 75, 89, 91, 93, 86, 89, 79, 78, 83, 88, 86, 80, 78, 77, 74, 73, 77, 78, 73, 70, 69, 62, 62, 66, 92, 96, 100, 101, 101, 88, 87, 90, 90, 85, 75, 76, 74, 80, 84, 88, 83, 76, 71, 80, 77, 83, 87, 86, 83, 91, 91, 87, 86, 79, 87, 92, 90, 98, 102, 86, 73, 81, 73, 76, 77, 83, 79, 74, 72, 78, 76, 81, 83},
{267, 279, 284, 308, 310, 330, 307, 314, 282, 320, 304, 331, 342, 379, 402, 395, 369, 371, 388, 332, 331, 330, 332, 273, 269, 271, 300, 303, 345, 347, 346, 318, 296, 230, 212, 249, 245, 252, 264, 262, 227, 240, 236, 267, 281, 276, 261, 264, 250, 274, 365, 427, 448, 447, 439, 431, 383, 399, 402, 410, 352, 360, 356, 374, 367, 365, 373, 350, 342, 325, 361, 373, 375, 355, 357, 312, 311, 295, 291, 331, 323, 335, 349, 341, 380, 400, 354, 322, 358, 288, 341, 352, 404, 378, 371, 324, 362, 322, 320, 316},
{208, 235, 240, 263, 287, 296, 281, 314, 292, 281, 281, 423, 468, 535, 540, 585, 540, 522, 478, 495, 459, 405, 407, 380, 348, 305, 324, 314, 367, 367, 426, 430, 393, 360, 369, 311, 311, 307, 301, 383, 454, 525, 532, 552, 493, 427, 315, 346, 319, 357, 439, 449, 424, 409, 385, 309, 325, 404, 471, 476, 458, 443, 376, 327, 333, 369, 389, 392, 384, 357, 329, 351, 394, 390, 386, 450, 456, 410, 403, 398, 327, 305, 324, 342, 475, 472, 473, 493, 491, 424, 436, 425, 449, 446, 406, 419, 419, 349, 334, 355},
{46, 54, 64, 67, 72, 73, 65, 60, 61, 73, 74, 94, 106, 118, 112, 122, 119, 123, 112, 113, 103, 99, 85, 90, 91, 87, 88, 89, 85, 81, 83, 86, 83, 83, 86, 89, 79, 78, 89, 93, 118, 130, 129, 128, 128, 103, 91, 91, 82, 80, 79, 77, 80, 81, 73, 91, 87, 99, 106, 118, 110, 108, 101, 94, 85, 80, 83, 77, 71, 66, 67, 73, 77, 80, 85, 91, 88, 86, 88, 81, 83, 81, 93, 98, 109, 108, 127, 126, 121, 124, 122, 101, 106, 105, 93, 95, 103, 88, 90, 90},
{63, 58, 69, 74, 74, 75, 75, 66, 72, 78, 80, 95, 95, 89, 85, 98, 86, 87, 87, 84, 64, 63, 63, 63, 66, 69, 70, 67, 64, 65, 74, 75, 73, 72, 70, 57, 55, 56, 53, 55, 59, 57, 57, 65, 63, 66, 72, 78, 71, 72, 68, 63, 67, 70, 74, 73, 72, 70, 71, 64, 72, 77, 67, 64, 65, 60, 49, 55, 62, 65, 62, 63, 68, 64, 63, 78, 81, 74, 74, 75, 59, 52, 59, 59, 57, 59, 64, 57, 56, 63, 64, 61, 68, 70, 63, 62, 63, 58, 52, 60},
{112, 98, 125, 130, 118, 125, 129, 105, 112, 113, 101, 156, 160, 154, 161, 183, 135, 139, 141, 133, 101, 108, 109, 106, 102, 118, 118, 106, 110, 129, 135, 141, 143, 147, 134, 111, 102, 101, 85, 115, 132, 127, 127, 131, 105, 101, 131, 160, 164, 166, 165, 150, 153, 153, 156, 151, 148, 126, 115, 103, 111, 129, 114, 109, 113, 117, 96, 103, 110, 113, 101, 101, 98, 98, 91, 98, 94, 90, 92, 108, 96, 95, 102, 107, 93, 97, 106, 107, 108, 130, 132, 141, 142, 136, 119, 117, 109, 103, 98, 104},
{97, 74, 79, 76, 78, 80, 87, 91, 89, 92, 121, 179, 217, 223, 242, 239, 204, 196, 204, 188, 183, 180, 165, 155, 157, 156, 153, 142, 153, 146, 168, 171, 181, 170, 170, 138, 174, 164, 160, 165, 176, 131, 135, 160, 177, 174, 181, 168, 158, 131, 130, 126, 163, 156, 151, 143, 140, 109, 109, 112, 115, 131, 122, 113, 109, 120, 102, 96, 99, 105, 111, 114, 120, 134, 131, 116, 120, 126, 121, 119, 117, 134, 130, 118, 126, 135, 121, 126, 128, 130, 126, 114, 105, 129, 124, 119, 121, 168, 151, 155}}

// 17 Reading of the 8 sensors, 100 samples per sensor
{{105, 105, 102, 108, 106, 109, 107, 109, 105, 97, 123, 125, 123, 130, 133, 107, 110, 108, 114, 152, 152, 150, 159, 178, 146, 146, 147, 141, 122, 115, 107, 112, 118, 132, 131, 133, 129, 134, 118, 116, 122, 123, 121, 105, 108, 101, 108, 95, 100, 112, 111, 105, 106, 102, 84, 125, 135, 153, 174, 180, 154, 146, 143, 116, 118, 155, 155, 146, 141, 136, 92, 118, 128, 133, 130, 131, 119, 101, 103, 117, 128, 112, 127, 147, 136, 161, 167, 162, 148, 152, 135, 132, 158, 148, 148, 153, 156, 125, 127, 128},
{109, 107, 115, 129, 114, 113, 114, 115, 101, 98, 91, 84, 76, 76, 69, 61, 68, 62, 61, 77, 85, 83, 94, 93, 87, 91, 87, 85, 100, 97, 89, 93, 96, 88, 93, 98, 100, 95, 90, 82, 74, 75, 77, 80, 80, 79, 80, 86, 81, 91, 96, 96, 98, 102, 99, 104, 109, 104, 106, 120, 117, 118, 116, 121, 107, 107, 105, 105, 95, 92, 91, 92, 88, 84, 82, 76, 63, 66, 73, 73, 78, 77, 74, 85, 90, 89, 92, 97, 90, 99, 98, 94, 91, 95, 88, 82, 83, 83, 83, 79},
{346, 327, 344, 360, 318, 327, 349, 368, 379, 390, 355, 334, 310, 285, 254, 260, 285, 278, 272, 298, 351, 346, 387, 370, 371, 344, 326, 338, 417, 400, 379, 385, 351, 295, 321, 321, 325, 325, 297, 259, 279, 277, 269, 290, 298, 309, 314, 328, 310, 307, 301, 310, 300, 326, 329, 309, 296, 281, 276, 344, 356, 362, 358, 373, 309, 294, 320, 323, 278, 295, 338, 318, 321, 318, 316, 273, 243, 220, 239, 210, 201, 209, 229, 235, 250, 243, 277, 259, 267, 305, 313, 276, 298, 300, 256, 258, 304, 303, 313, 353},
{305, 324, 334, 346, 328, 323, 316, 360, 336, 346, 362, 342, 272, 248, 230, 214, 229, 225, 248, 264, 287, 284, 276, 268, 251, 221, 227, 247, 272, 290, 306, 296, 287, 336, 378, 363, 386, 388, 325, 278, 297, 266, 265, 275, 255, 223, 207, 186, 229, 244, 273, 300, 312, 283, 271, 261, 242, 244, 275, 322, 369, 361, 395, 384, 372, 324, 343, 322, 312, 313, 330, 358, 345, 342, 328, 325, 280, 265, 303, 302, 291, 317, 330, 333, 370, 365, 351, 341, 349, 369, 367, 399, 438, 402, 337, 359, 354, 330, 332, 377},
{64, 80, 79, 91, 93, 87, 78, 78, 64, 65, 67, 71, 80, 82, 79, 78, 68, 50, 59, 64, 73, 77, 82, 74, 79, 72, 65, 62, 72, 65, 65, 71, 70, 67, 63, 67, 73, 75, 72, 80, 77, 73, 81, 78, 68, 65, 62, 54, 57, 59, 66, 71, 75, 76, 75, 70, 68, 61, 66, 74, 78, 72, 81, 73, 70, 75, 80, 67, 70, 77, 68, 62, 71, 75, 61, 65, 68, 67, 60, 61, 57, 57, 51, 55, 65, 67, 73, 73, 72, 78, 83, 88, 92, 93, 82, 79, 80, 84, 84, 94},
{78, 79, 79, 78, 72, 67, 64, 58, 58, 67, 66, 94, 96, 92, 88, 90, 62, 60, 95, 98, 99, 102, 108, 89, 90, 86, 86, 82, 77, 70, 66, 61, 57, 56, 56, 62, 65, 65, 60, 62, 68, 73, 73, 74, 70, 61, 63, 65, 75, 76, 79, 73, 76, 76, 76, 76, 77, 69, 58, 58, 55, 51, 54, 55, 55, 63, 61, 60, 57, 57, 55, 54, 56, 58, 56, 51, 46, 45, 48, 56, 66, 73, 71, 70, 62, 52, 53, 57, 64, 65, 66, 61, 56, 49, 51, 58, 57, 58, 55, 51},
{113, 120, 117, 118, 124, 113, 98, 101, 106, 139, 136, 158, 160, 164, 139, 142, 122, 121, 121, 124, 130, 130, 134, 146, 139, 135, 132, 124, 100, 96, 85, 91, 89, 86, 92, 100, 121, 125, 123, 123, 145, 130, 130, 129, 128, 97, 97, 109, 123, 125, 139, 131, 121, 119, 119, 113, 161, 177, 174, 179, 182, 182, 179, 179, 178, 175, 133, 125, 121, 121, 118, 122, 113, 117, 107, 110, 106, 114, 112, 135, 133, 134, 125, 129, 116, 108, 129, 131, 125, 118, 143, 132, 133, 145, 164, 195, 220, 228, 227, 228},
{91, 87, 122, 126, 124, 141, 152, 124, 120, 123, 113, 99, 102, 105, 100, 98, 105, 109, 116, 153, 154, 149, 143, 146, 110, 91, 91, 112, 134, 132, 135, 135, 141, 116, 116, 116, 129, 114, 125, 121, 123, 118, 111, 93, 96, 98, 92, 102, 108, 118, 113, 122, 118, 106, 96, 117, 101, 110, 141, 154, 143, 177, 172, 152, 157, 162, 129, 136, 133, 114, 132, 133, 130, 151, 149, 129, 131, 128, 107, 102, 102, 104, 121, 128, 131, 138, 141, 121, 119, 117, 138, 131, 131, 132, 142, 116, 127, 133, 133, 122}}

// 18 Reading of the 8 sensors, 100 samples per sensor
{{141, 143, 155, 134, 133, 136, 142, 143, 152, 183, 178, 173, 165, 156, 104, 122, 138, 152, 141, 149, 133, 126, 117, 134, 123, 126, 126, 133, 120, 132, 130, 125, 139, 160, 151, 166, 172, 149, 130, 125, 114, 129, 128, 139, 171, 167, 143, 173, 167, 140, 151, 154, 138, 154, 166, 170, 184, 179, 162, 160, 162, 153, 148, 157, 149, 150, 139, 137, 137, 149, 150, 156, 157, 163, 170, 155, 159, 188, 181, 164, 158, 156, 169, 164, 160, 180, 176, 153, 151, 152, 137, 139, 121, 120, 117, 119, 114, 132, 128, 123},
{93, 98, 98, 98, 99, 93, 90, 96, 101, 120, 124, 119, 115, 105, 83, 69, 76, 82, 91, 96, 98, 99, 91, 100, 99, 96, 94, 94, 83, 79, 90, 88, 91, 91, 97, 87, 87, 87, 95, 91, 95, 97, 92, 82, 79, 75, 80, 82, 79, 82, 81, 72, 84, 84, 83, 97, 102, 100, 102, 101, 91, 90, 84, 77, 73, 73, 68, 58, 69, 71, 75, 74, 75, 70, 93, 94, 97, 96, 95, 70, 73, 76, 77, 78, 84, 78, 73, 73, 77, 80, 73, 75, 70, 63, 57, 61, 67, 70, 69, 67},
{361, 371, 391, 357, 347, 382, 408, 401, 407, 403, 404, 372, 388, 392, 391, 339, 330, 312, 352, 368, 405, 398, 393, 344, 320, 267, 280, 303, 315, 311, 302, 338, 303, 278, 301, 313, 277, 295, 297, 303, 310, 301, 292, 322, 285, 271, 299, 304, 296, 304, 301, 259, 281, 267, 292, 320, 336, 353, 380, 351, 362, 370, 327, 281, 300, 243, 224, 208, 221, 225, 233, 218, 236, 219, 274, 286, 287, 308, 316, 253, 252, 266, 228, 217, 213, 225, 234, 238, 260, 286, 271, 241, 251, 240, 220, 219, 238, 234, 246, 242},
{223, 231, 240, 274, 272, 255, 271, 272, 244, 232, 278, 282, 302, 319, 392, 354, 362, 351, 361, 292, 325, 302, 295, 268, 259, 218, 204, 201, 209, 201, 214, 250, 261, 243, 249, 255, 249, 251, 262, 282, 291, 273, 263, 261, 237, 210, 231, 246, 260, 283, 281, 255, 244, 249, 213, 239, 291, 288, 276, 272, 248, 203, 209, 196, 200, 195, 195, 176, 189, 187, 176, 169, 184, 166, 163, 211, 208, 208, 213, 221, 218, 225, 222, 221, 248, 231, 235, 229, 244, 214, 206, 201, 218, 214, 224, 215, 204, 189, 177, 169},
{81, 80, 76, 81, 80, 70, 70, 76, 68, 70, 79, 79, 73, 84, 89, 78, 77, 82, 70, 63, 64, 59, 60, 60, 56, 57, 57, 55, 56, 54, 55, 58, 57, 54, 59, 63, 61, 60, 60, 59, 55, 57, 57, 58, 55, 53, 51, 54, 57, 61, 56, 57, 56, 60, 57, 65, 67, 65, 64, 62, 60, 56, 57, 52, 53, 53, 52, 51, 53, 54, 52, 55, 56, 53, 49, 54, 52, 50, 55, 58, 58, 61, 61, 62, 68, 71, 69, 71, 72, 66, 68, 70, 69, 71, 69, 58, 53, 57, 46, 49},
{109, 114, 105, 99, 100, 90, 84, 90, 99, 97, 82, 84, 75, 65, 61, 61, 61, 71, 69, 67, 67, 66, 59, 59, 67, 65, 62, 56, 63, 79, 81, 82, 81, 78, 54, 52, 52, 57, 54, 56, 61, 71, 66, 64, 66, 63, 49, 49, 54, 50, 49, 49, 52, 61, 60, 57, 57, 58, 49, 52, 52, 52, 51, 45, 50, 52, 51, 58, 59, 53, 51, 52, 43, 42, 41, 38, 37, 44, 46, 47, 48, 51, 45, 46, 46, 50, 52, 51, 57, 64, 64, 58, 58, 51, 41, 44, 45, 49, 46, 48},
{114, 115, 105, 99, 105, 113, 108, 126, 126, 122, 109, 114, 94, 97, 94, 93, 89, 99, 100, 97, 97, 92, 100, 115, 112, 111, 109, 94, 94, 114, 113, 117, 111, 106, 89, 87, 92, 101, 95, 100, 109, 114, 110, 114, 123, 114, 99, 98, 96, 74, 81, 88, 93, 100, 108, 109, 109, 100, 99, 100, 96, 90, 101, 87, 95, 101, 101, 100, 103, 84, 89, 110, 117, 116, 118, 112, 94, 108, 108, 104, 100, 104, 78, 73, 73, 79, 77, 70, 80, 90, 89, 80, 85, 75, 74, 87, 94, 89, 99, 93},
{156, 147, 146, 146, 146, 124, 137, 171, 171, 167, 164, 164, 134, 123, 117, 140, 130, 130, 135, 149, 133, 137, 135, 143, 130, 126, 108, 135, 135, 155, 154, 163, 156, 150, 122, 144, 149, 129, 135, 151, 127, 115, 123, 132, 118, 116, 112, 143, 131, 133, 149, 152, 121, 133, 159, 156, 159, 153, 160, 138, 132, 128, 143, 126, 121, 117, 112, 119, 110, 106, 120, 142, 121, 131, 154, 145, 126, 133, 145, 123, 118, 121, 143, 118, 122, 127, 150, 142, 140, 149, 152, 124, 98, 126, 121, 116, 117, 144, 121, 110}}

// 19 Reading of the 8 sensors, 100 samples per sensor
{{81, 80, 82, 68, 83, 85, 89, 83, 80, 63, 66, 75, 87, 89, 91, 90, 104, 112, 112, 109, 110, 92, 74, 82, 90, 83, 80, 73, 64, 53, 60, 69, 88, 96, 95, 100, 96, 86, 78, 78, 73, 87, 82, 87, 98, 93, 77, 81, 80, 84, 90, 93, 91, 100, 85, 83, 80, 81, 62, 70, 71, 79, 84, 85, 87, 91, 88, 87, 94, 93, 93, 96, 91, 89, 89, 82, 77, 81, 76, 73, 72, 79, 74, 72, 83, 88, 90, 96, 101, 91, 90, 81, 83, 84, 86, 82, 81, 69, 59, 60},
{108, 116, 118, 111, 122, 114, 107, 90, 92, 90, 92, 120, 129, 128, 125, 118, 95, 87, 89, 86, 89, 87, 80, 78, 84, 81, 73, 79, 82, 78, 94, 98, 93, 94, 89, 88, 92, 104, 101, 101, 93, 99, 90, 89, 88, 94, 77, 72, 70, 82, 69, 71, 70, 82, 77, 79, 78, 81, 71, 71, 76, 79, 72, 75, 73, 73, 68, 69, 73, 71, 72, 84, 88, 86, 85, 80, 70, 64, 61, 63, 66, 70, 72, 68, 64, 59, 59, 57, 56, 64, 76, 77, 87, 106, 115, 117, 117, 109, 95, 88},
{150, 165, 150, 142, 144, 143, 133, 139, 160, 183, 185, 205, 224, 205, 188, 194, 186, 171, 188, 193, 189, 187, 182, 177, 167, 156, 158, 165, 156, 176, 187, 168, 156, 155, 142, 153, 178, 191, 200, 191, 173, 154, 143, 141, 137, 140, 151, 140, 147, 161, 154, 161, 163, 154, 139, 147, 136, 136, 134, 140, 141, 152, 152, 158, 149, 147, 119, 134, 140, 148, 144, 164, 146, 151, 147, 151, 145, 146, 121, 137, 135, 131, 145, 156, 146, 150, 144, 135, 136, 155, 159, 169, 177, 191, 176, 191, 187, 179, 156, 166},
{287, 345, 321, 334, 335, 320, 275, 271, 304, 315, 318, 338, 340, 291, 308, 298, 312, 316, 320, 294, 345, 299, 296, 326, 344, 291, 294, 284, 261, 255, 283, 294, 310, 296, 296, 291, 261, 253, 288, 266, 317, 316, 307, 280, 282, 251, 256, 266, 258, 257, 229, 238, 241, 277, 284, 281, 283, 279, 267, 255, 237, 295, 299, 320, 332, 331, 285, 285, 263, 291, 297, 303, 286, 290, 296, 284, 256, 258, 229, 276, 301, 369, 388, 386, 346, 353, 293, 276, 302, 278, 319, 336, 340, 346, 333, 280, 275, 258, 246, 267},
{85, 76, 79, 82, 77, 78, 95, 87, 90, 89, 87, 69, 80, 72, 71, 75, 80, 73, 74, 73, 72, 70, 65, 64, 62, 59, 60, 70, 68, 74, 81, 82, 74, 78, 73, 67, 58, 56, 62, 60, 65, 67, 70, 66, 72, 70, 70, 73, 82, 82, 83, 83, 78, 72, 71, 68, 65, 69, 71, 69, 68, 76, 81, 75, 77, 73, 66, 62, 68, 73, 77, 80, 80, 81, 77, 82, 83, 78, 65, 86, 84, 88, 92, 94, 78, 80, 77, 78, 82, 79, 77, 70, 71, 73, 67, 71, 73, 65, 63, 66},
{99, 100, 101, 91, 89, 92, 88, 89, 94, 92, 91, 102, 98, 84, 86, 81, 95, 100, 106, 106, 104, 78, 77, 68, 70, 77, 73, 69, 71, 73, 71, 80, 86, 89, 84, 81, 73, 66, 101, 107, 110, 111, 108, 75, 70, 70, 67, 67, 75, 76, 77, 79, 78, 69, 62, 56, 58, 61, 63, 85, 90, 91, 96, 100, 82, 79, 78, 78, 69, 73, 84, 87, 82, 81, 79, 65, 56, 62, 61, 60, 63, 87, 85, 87, 87, 87, 63, 66, 62, 76, 78, 79, 76, 79, 80, 78, 79, 76, 71, 55},
{380, 354, 378, 285, 283, 283, 271, 233, 257, 225, 254, 313, 340, 302, 356, 344, 369, 361, 389, 358, 361, 306, 306, 278, 264, 249, 239, 211, 203, 226, 229, 258, 262, 265, 244, 252, 242, 261, 310, 315, 377, 358, 338, 327, 327, 244, 246, 284, 263, 280, 285, 273, 231, 205, 163, 173, 194, 258, 294, 332, 370, 380, 384, 389, 377, 349, 376, 371, 374, 390, 390, 367, 358, 362, 344, 346, 343, 344, 310, 310, 307, 304, 296, 290, 288, 275, 281, 302, 312, 319, 336, 313, 314, 320, 298, 271, 269, 222, 198, 196},
{472, 484, 461, 388, 504, 511, 513, 490, 465, 353, 402, 463, 539, 544, 528, 481, 502, 443, 452, 468, 503, 461, 460, 469, 496, 437, 391, 364, 339, 288, 318, 421, 476, 506, 500, 516, 464, 382, 361, 346, 325, 342, 357, 395, 475, 456, 427, 416, 405, 473, 472, 471, 471, 467, 326, 359, 405, 429, 414, 422, 450, 471, 481, 475, 496, 474, 457, 428, 471, 443, 458, 435, 435, 429, 485, 451, 465, 477, 451, 405, 416, 390, 390, 387, 415, 427, 478, 501, 520, 479, 466, 387, 360, 321, 322, 303, 329, 289, 297, 284}}

// 20 Reading of the 8 sensors, 100 samples per sensor
{{76, 82, 79, 86, 91, 87, 80, 80, 64, 55, 65, 68, 68, 71, 74, 63, 58, 70, 72, 70, 70, 71, 70, 79, 74, 82, 85, 78, 68, 75, 69, 67, 62, 59, 51, 56, 53, 57, 60, 61, 77, 79, 80, 90, 92, 86, 93, 97, 88, 100, 97, 95, 99, 99, 87, 89, 82, 77, 81, 83, 78, 81, 81, 80, 81, 85, 88, 83, 80, 77, 81, 79, 80, 80, 76, 66, 66, 70, 69, 75, 76, 74, 72, 82, 87, 117, 122, 132, 158, 162, 144, 142, 139, 113, 115, 125, 124, 132, 138, 136},
{88, 80, 77, 83, 85, 88, 86, 96, 101, 95, 89, 96, 89, 78, 77, 76, 80, 80, 74, 80, 85, 74, 76, 75, 68, 71, 76, 71, 74, 75, 80, 74, 78, 75, 76, 66, 62, 60, 58, 65, 67, 71, 75, 76, 73, 75, 70, 71, 77, 81, 72, 79, 72, 73, 84, 88, 85, 88, 88, 88, 84, 80, 84, 96, 93, 101, 108, 104, 98, 89, 93, 89, 90, 85, 84, 77, 75, 76, 75, 75, 80, 90, 86, 82, 83, 74, 61, 68, 87, 123, 127, 136, 138, 132, 98, 94, 86, 80, 68, 79},
{179, 133, 129, 126, 115, 155, 151, 155, 154, 167, 126, 149, 143, 149, 135, 135, 124, 130, 133, 138, 154, 148, 148, 143, 136, 134, 125, 117, 111, 115, 95, 99, 96, 105, 128, 140, 147, 162, 156, 139, 135, 132, 119, 117, 114, 115, 115, 113, 133, 133, 134, 127, 125, 107, 126, 124, 124, 126, 132, 111, 95, 84, 76, 59, 66, 82, 85, 86, 96, 90, 80, 81, 100, 91, 98, 102, 104, 108, 131, 138, 151, 152, 138, 119, 110, 86, 91, 124, 136, 152, 160, 156, 136, 124, 115, 131, 156, 159, 175, 178},
{345, 286, 288, 300, 283, 320, 353, 351, 325, 376, 339, 301, 320, 336, 272, 280, 279, 268, 274, 285, 280, 294, 341, 325, 317, 369, 354, 303, 311, 316, 235, 227, 231, 237, 335, 348, 368, 391, 382, 290, 300, 295, 261, 252, 264, 318, 313, 339, 370, 356, 277, 274, 253, 238, 265, 291, 284, 288, 270, 249, 222, 220, 186, 178, 197, 194, 201, 212, 214, 198, 194, 213, 200, 206, 195, 191, 166, 166, 179, 203, 230, 223, 229, 222, 236, 216, 265, 289, 287, 288, 295, 269, 243, 227, 197, 218, 313, 342, 356, 375},
{68, 65, 62, 66, 73, 77, 84, 87, 84, 82, 82, 81, 72, 78, 75, 72, 71, 76, 74, 74, 79, 75, 72, 72, 75, 81, 89, 90, 89, 88, 86, 78, 80, 79, 91, 79, 87, 81, 88, 77, 79, 69, 79, 66, 58, 59, 59, 51, 58, 69, 66, 77, 80, 77, 71, 76, 71, 63, 65, 60, 57, 48, 52, 54, 59, 55, 56, 60, 57, 60, 63, 68, 64, 61, 57, 56, 62, 67, 69, 69, 87, 90, 92, 97, 98, 89, 93, 95, 95, 94, 86, 81, 73, 68, 64, 66, 81, 87, 91, 93},
{82, 79, 74, 76, 79, 79, 79, 87, 75, 75, 64, 65, 60, 63, 60, 62, 59, 53, 51, 51, 47, 46, 46, 72, 72, 79, 81, 85, 70, 74, 67, 66, 65, 63, 57, 57, 54, 58, 59, 67, 80, 82, 77, 79, 77, 65, 63, 72, 66, 65, 63, 65, 92, 94, 92, 95, 97, 72, 82, 83, 83, 80, 72, 62, 62, 59, 58, 55, 51, 45, 50, 62, 60, 65, 66, 85, 92, 96, 92, 101, 90, 74, 70, 72, 65, 83, 91, 92, 92, 94, 73, 66, 61, 58, 51, 46, 45, 58, 72, 83},
{334, 315, 321, 321, 312, 279, 277, 262, 234, 289, 278, 290, 291, 296, 240, 221, 223, 227, 239, 280, 290, 302, 301, 386, 365, 376, 357, 403, 374, 397, 387, 389, 350, 301, 254, 259, 262, 258, 260, 268, 285, 289, 282, 256, 304, 295, 294, 296, 308, 273, 288, 277, 349, 339, 328, 309, 322, 361, 414, 428, 425, 422, 322, 257, 231, 234, 268, 284, 280, 276, 279, 283, 252, 302, 304, 354, 342, 376, 348, 385, 402, 395, 381, 365, 361, 401, 418, 409, 420, 393, 349, 346, 347, 358, 350, 268, 251, 370, 407, 495},
{461, 466, 429, 484, 488, 464, 431, 414, 336, 292, 332, 361, 373, 359, 350, 289, 279, 324, 351, 382, 380, 375, 338, 403, 396, 412, 437, 472, 421, 405, 384, 362, 313, 338, 326, 356, 358, 349, 303, 347, 419, 405, 420, 439, 409, 372, 465, 469, 476, 525, 519, 452, 485, 451, 440, 430, 427, 423, 412, 388, 380, 400, 387, 407, 409, 394, 454, 423, 402, 448, 460, 379, 367, 381, 319, 357, 419, 439, 441, 467, 450, 411, 439, 437, 443, 541, 536, 562, 689, 666, 588, 580, 553, 457, 500, 521, 541, 550, 560, 602}}

// 21 Reading of the 8 sensors, 100 samples per sensor
{{108, 99, 102, 90, 85, 115, 119, 122, 150, 149, 124, 129, 136, 107, 108, 116, 121, 106, 102, 103, 95, 80, 79, 88, 85, 87, 87, 86, 82, 84, 83, 87, 87, 82, 82, 79, 72, 70, 66, 82, 84, 78, 82, 88, 76, 70, 73, 73, 69, 73, 76, 77, 75, 76, 74, 74, 78, 80, 75, 65, 70, 63, 58, 76, 77, 75, 71, 74, 71, 77, 69, 83, 80, 71, 96, 103, 96, 95, 95, 64, 52, 46, 52, 53, 61, 69, 70, 73, 70, 65, 65, 66, 66, 75, 77, 75, 78, 76, 66, 64},
{79, 99, 131, 132, 127, 137, 132, 110, 111, 114, 112, 125, 122, 117, 115, 111, 96, 88, 86, 88, 84, 70, 74, 79, 78, 75, 81, 83, 86, 89, 97, 93, 91, 105, 100, 92, 104, 103, 79, 84, 98, 84, 90, 92, 89, 73, 73, 79, 84, 91, 98, 104, 103, 101, 102, 108, 112, 121, 121, 125, 136, 125, 109, 121, 118, 96, 106, 126, 122, 124, 126, 139, 135, 130, 144, 149, 140, 125, 134, 110, 97, 88, 98, 85, 89, 89, 83, 80, 82, 77, 80, 86, 80, 79, 98, 108, 104, 107, 109, 105},
{105, 117, 130, 135, 129, 143, 152, 153, 155, 173, 168, 176, 168, 169, 179, 179, 163, 165, 163, 150, 167, 164, 171, 169, 152, 125, 128, 115, 129, 136, 139, 135, 136, 120, 120, 123, 117, 120, 141, 142, 150, 175, 178, 160, 162, 149, 129, 143, 160, 154, 154, 146, 128, 116, 136, 135, 142, 132, 118, 92, 122, 116, 127, 137, 162, 147, 150, 158, 154, 133, 140, 141, 129, 125, 125, 131, 136, 135, 133, 127, 115, 124, 126, 127, 127, 133, 111, 107, 118, 127, 121, 128, 130, 137, 139, 128, 120, 125, 135, 126},
{287, 297, 278, 274, 248, 237, 243, 272, 273, 282, 307, 289, 276, 256, 250, 246, 258, 269, 293, 327, 381, 370, 385, 386, 342, 302, 320, 287, 281, 302, 266, 244, 259, 228, 207, 208, 228, 201, 264, 290, 279, 267, 279, 242, 204, 221, 208, 228, 238, 274, 260, 256, 233, 262, 275, 271, 277, 268, 215, 155, 170, 185, 192, 200, 230, 232, 217, 206, 220, 204, 221, 218, 271, 255, 243, 247, 250, 190, 183, 186, 149, 155, 159, 168, 152, 150, 145, 141, 169, 190, 192, 199, 201, 197, 182, 179, 186, 233, 215, 225},
{93, 93, 94, 83, 80, 76, 75, 71, 69, 68, 76, 78, 72, 80, 79, 77, 72, 73, 65, 63, 61, 79, 75, 76, 82, 93, 80, 83, 92, 98, 91, 94, 95, 86, 69, 61, 70, 69, 75, 77, 83, 69, 76, 71, 74, 69, 78, 75, 76, 81, 85, 81, 81, 90, 88, 86, 88, 87, 77, 75, 73, 71, 65, 74, 80, 81, 82, 82, 72, 64, 67, 74, 74, 77, 78, 79, 71, 75, 74, 69, 65, 66, 61, 63, 69, 68, 61, 56, 61, 63, 62, 63, 65, 60, 55, 58, 59, 67, 66, 68},
{78, 88, 96, 95, 90, 89, 86, 77, 83, 84, 94, 105, 104, 96, 97, 86, 65, 65, 64, 62, 61, 63, 71, 81, 85, 89, 99, 92, 94, 89, 86, 75, 77, 65, 66, 67, 59, 53, 51, 57, 57, 66, 72, 73, 80, 80, 76, 74, 79, 68, 66, 63, 61, 59, 58, 56, 55, 64, 63, 59, 59, 63, 57, 66, 70, 70, 68, 66, 67, 67, 70, 79, 78, 66, 69, 85, 84, 85, 85, 85, 67, 60, 62, 69, 75, 79, 78, 78, 74, 69, 64, 66, 60, 60, 47, 47, 53, 59, 58, 58},
{342, 304, 293, 249, 245, 236, 250, 256, 300, 312, 304, 311, 317, 282, 245, 265, 247, 262, 250, 245, 239, 292, 284, 349, 350, 358, 335, 329, 276, 295, 272, 265, 265, 252, 264, 295, 294, 292, 293, 277, 259, 297, 306, 302, 302, 293, 294, 292, 299, 310, 319, 257, 253, 248, 205, 199, 202, 246, 231, 240, 258, 263, 235, 279, 285, 285, 268, 254, 240, 238, 239, 262, 278, 261, 264, 239, 234, 226, 271, 276, 274, 291, 310, 282, 291, 286, 299, 264, 244, 236, 243, 242, 268, 272, 262, 255, 234, 205, 209, 208},
{680, 613, 593, 512, 484, 416, 450, 449, 545, 513, 469, 440, 433, 318, 334, 376, 374, 390, 375, 392, 377, 419, 386, 460, 425, 445, 430, 436, 363, 374, 332, 393, 395, 375, 412, 463, 421, 408, 400, 408, 357, 330, 350, 395, 387, 385, 384, 381, 332, 349, 372, 362, 353, 393, 329, 318, 339, 383, 339, 332, 340, 308, 253, 343, 368, 336, 346, 342, 288, 296, 309, 320, 351, 348, 322, 335, 326, 305, 296, 286, 259, 267, 285, 286, 303, 315, 360, 352, 331, 342, 333, 306, 307, 317, 296, 279, 286, 291, 310, 345}}

// 22 Reading of the 8 sensors, 100 samples per sensor
{{98, 100, 97, 100, 96, 82, 76, 76, 68, 65, 64, 70, 78, 77, 94, 102, 104, 110, 112, 110, 106, 108, 97, 97, 92, 92, 84, 83, 81, 77, 80, 84, 84, 82, 87, 86, 94, 95, 97, 95, 108, 103, 105, 106, 111, 95, 106, 106, 112, 105, 107, 98, 101, 104, 114, 123, 117, 110, 108, 97, 88, 89, 104, 92, 95, 90, 94, 92, 100, 95, 105, 111, 110, 110, 118, 112, 116, 111, 108, 107, 105, 89, 86, 80, 70, 70, 77, 74, 82, 84, 85, 99, 99, 94, 92, 88, 90, 105, 107, 110},
{94, 92, 99, 77, 97, 102, 103, 96, 100, 79, 76, 72, 86, 89, 99, 99, 103, 110, 107, 92, 92, 87, 65, 95, 103, 106, 108, 105, 78, 85, 89, 102, 104, 106, 99, 108, 98, 107, 108, 110, 102, 109, 106, 112, 107, 98, 93, 91, 98, 113, 116, 124, 130, 120, 105, 108, 94, 79, 76, 79, 66, 64, 78, 80, 89, 90, 91, 83, 87, 77, 82, 83, 83, 84, 114, 114, 121, 126, 123, 105, 111, 104, 98, 90, 75, 59, 59, 49, 64, 73, 77, 85, 87, 85, 82, 100, 98, 95, 93, 104},
{144, 128, 123, 123, 115, 115, 117, 129, 126, 136, 131, 133, 127, 112, 119, 129, 138, 150, 148, 141, 132, 119, 106, 130, 136, 159, 164, 162, 147, 137, 118, 136, 136, 137, 132, 129, 116, 155, 162, 188, 194, 191, 159, 153, 117, 98, 89, 91, 93, 93, 97, 97, 131, 138, 145, 155, 165, 172, 162, 159, 148, 135, 84, 92, 90, 89, 94, 103, 94, 99, 117, 123, 121, 135, 135, 135, 174, 180, 176, 182, 174, 134, 136, 135, 121, 125, 152, 145, 161, 166, 161, 132, 139, 151, 150, 156, 162, 165, 134, 143},
{470, 403, 323, 287, 316, 309, 292, 313, 303, 277, 273, 258, 228, 240, 339, 346, 357, 359, 331, 220, 221, 266, 345, 443, 467, 494, 455, 420, 323, 305, 280, 288, 285, 297, 294, 286, 320, 370, 367, 417, 456, 434, 374, 365, 294, 208, 219, 262, 301, 305, 301, 281, 314, 288, 313, 316, 382, 401, 389, 363, 401, 444, 378, 433, 439, 403, 318, 322, 249, 301, 337, 316, 316, 323, 276, 273, 320, 318, 336, 365, 344, 346, 355, 368, 331, 396, 415, 442, 488, 518, 503, 453, 417, 413, 393, 352, 398, 455, 393, 409},
{111, 93, 83, 73, 70, 72, 74, 80, 76, 73, 73, 70, 61, 65, 77, 85, 89, 90, 88, 79, 74, 68, 80, 101, 105, 103, 107, 109, 93, 90, 89, 84, 82, 81, 79, 83, 86, 82, 84, 90, 94, 91, 100, 102, 101, 96, 98, 87, 85, 77, 74, 72, 83, 85, 83, 89, 113, 122, 121, 126, 125, 114, 98, 95, 92, 85, 72, 66, 76, 83, 92, 90, 92, 96, 93, 101, 103, 103, 92, 94, 82, 79, 78, 85, 88, 90, 94, 111, 121, 120, 124, 125, 108, 100, 93, 90, 86, 89, 91, 103},
{79, 87, 81, 80, 76, 79, 69, 80, 79, 79, 74, 76, 63, 60, 58, 66, 64, 69, 68, 80, 79, 78, 83, 89, 79, 82, 93, 89, 87, 92, 86, 75, 72, 84, 90, 101, 108, 108, 104, 94, 110, 104, 105, 98, 112, 84, 85, 81, 77, 55, 55, 52, 62, 65, 78, 87, 92, 89, 113, 114, 122, 123, 128, 111, 102, 89, 82, 72, 74, 80, 78, 83, 106, 102, 101, 96, 102, 77, 75, 74, 72, 59, 65, 71, 81, 85, 84, 87, 78, 69, 72, 76, 79, 81, 77, 77, 94, 84, 87, 89},
{367, 366, 342, 387, 381, 340, 342, 366, 323, 287, 280, 344, 317, 281, 309, 345, 304, 312, 329, 355, 345, 333, 385, 375, 346, 328, 372, 334, 324, 307, 317, 269, 267, 282, 339, 360, 391, 384, 399, 365, 405, 395, 395, 383, 431, 378, 373, 369, 368, 319, 318, 296, 344, 346, 367, 375, 368, 352, 348, 326, 384, 395, 451, 461, 445, 413, 419, 344, 354, 403, 367, 384, 391, 378, 341, 338, 313, 297, 312, 328, 351, 359, 382, 391, 374, 367, 362, 394, 398, 465, 462, 467, 427, 382, 277, 271, 408, 403, 437, 454},
{552, 554, 523, 612, 563, 489, 482, 508, 365, 343, 336, 372, 352, 349, 412, 461, 463, 512, 515, 515, 489, 465, 433, 424, 417, 399, 434, 397, 387, 344, 408, 388, 387, 394, 408, 366, 418, 427, 439, 424, 464, 382, 395, 388, 487, 456, 478, 476, 497, 391, 383, 369, 384, 386, 463, 494, 483, 504, 514, 477, 519, 513, 524, 511, 490, 414, 437, 426, 425, 443, 462, 486, 463, 480, 518, 509, 491, 463, 419, 383, 363, 333, 396, 393, 354, 371, 434, 397, 418, 444, 452, 430, 429, 407, 384, 386, 463, 512, 519, 548}}

// 23 Reading of the 8 sensors, 100 samples per sensor
{{100, 105, 96, 103, 104, 103, 97, 98, 98, 76, 73, 72, 73, 62, 65, 64, 70, 67, 70, 78, 81, 81, 82, 87, 104, 116, 117, 116, 111, 97, 81, 104, 107, 104, 95, 96, 66, 66, 84, 85, 79, 86, 91, 85, 86, 86, 78, 70, 75, 83, 88, 90, 91, 85, 79, 83, 79, 74, 70, 75, 61, 63, 66, 67, 68, 79, 76, 78, 84, 89, 84, 93, 92, 89, 80, 81, 77, 79, 83, 83, 81, 76, 70, 52, 59, 66, 75, 75, 83, 87, 91, 91, 89, 86, 73, 58, 48, 57, 56, 61},
{90, 94, 87, 89, 84, 79, 71, 79, 82, 72, 71, 74, 70, 74, 80, 81, 82, 85, 82, 85, 87, 96, 94, 119, 159, 162, 155, 159, 138, 83, 78, 101, 97, 100, 110, 113, 96, 96, 96, 96, 91, 95, 85, 88, 83, 86, 85, 102, 114, 112, 111, 110, 98, 91, 81, 79, 77, 78, 68, 73, 73, 77, 72, 65, 67, 61, 59, 58, 64, 66, 66, 66, 68, 70, 62, 66, 67, 64, 60, 60, 59, 66, 68, 67, 70, 75, 66, 65, 77, 81, 74, 86, 92, 83, 76, 74, 62, 47, 48, 53},
{147, 160, 153, 141, 132, 142, 122, 120, 119, 115, 97, 93, 90, 94, 92, 85, 92, 99, 115, 128, 135, 145, 143, 127, 114, 104, 93, 104, 104, 113, 116, 116, 107, 119, 124, 122, 116, 119, 117, 103, 100, 99, 104, 98, 97, 100, 97, 99, 99, 99, 94, 98, 81, 76, 87, 94, 98, 103, 100, 92, 86, 91, 89, 90, 98, 100, 104, 107, 112, 103, 108, 96, 90, 99, 111, 102, 93, 91, 77, 70, 78, 80, 91, 99, 97, 110, 119, 113, 107, 109, 110, 107, 102, 99, 93, 79, 78, 85, 96, 93},
{225, 227, 248, 228, 221, 233, 256, 236, 239, 261, 253, 230, 231, 250, 244, 211, 207, 279, 283, 291, 317, 321, 259, 251, 233, 188, 181, 200, 179, 200, 220, 226, 227, 250, 277, 311, 313, 296, 300, 257, 202, 236, 237, 235, 245, 268, 229, 279, 264, 254, 226, 239, 183, 172, 204, 217, 222, 219, 236, 234, 224, 206, 218, 203, 185, 247, 263, 261, 267, 273, 210, 192, 198, 197, 174, 176, 165, 145, 159, 150, 178, 188, 220, 218, 227, 223, 227, 218, 211, 234, 261, 250, 237, 235, 218, 222, 249, 238, 266, 256},
{68, 65, 67, 71, 69, 75, 86, 83, 82, 81, 71, 56, 46, 46, 47, 52, 54, 59, 64, 65, 69, 69, 67, 66, 60, 52, 48, 50, 48, 58, 65, 68, 68, 70, 72, 66, 68, 67, 64, 55, 60, 61, 57, 60, 62, 57, 58, 70, 67, 68, 70, 66, 64, 65, 72, 70, 71, 67, 67, 64, 65, 70, 67, 75, 70, 71, 65, 67, 62, 64, 64, 67, 67, 63, 61, 66, 59, 60, 61, 58, 57, 55, 52, 54, 54, 54, 60, 62, 62, 68, 66, 67, 68, 65, 64, 62, 55, 49, 54, 47},
{81, 80, 67, 65, 63, 67, 65, 72, 70, 69, 68, 74, 62, 60, 60, 57, 53, 52, 57, 58, 58, 54, 53, 58, 61, 58, 58, 65, 57, 60, 68, 74, 70, 68, 59, 56, 53, 58, 84, 85, 79, 79, 75, 60, 59, 60, 60, 60, 52, 55, 58, 54, 56, 52, 48, 50, 55, 55, 56, 58, 53, 51, 53, 58, 63, 73, 74, 72, 68, 64, 63, 58, 56, 58, 58, 67, 72, 72, 69, 65, 51, 48, 49, 49, 53, 60, 61, 60, 60, 84, 90, 90, 90, 90, 68, 45, 39, 43, 46, 44},
{295, 287, 278, 300, 269, 287, 301, 323, 346, 362, 339, 308, 280, 274, 270, 284, 299, 320, 297, 308, 279, 291, 261, 268, 242, 251, 237, 276, 254, 265, 284, 308, 279, 288, 274, 272, 240, 273, 332, 325, 299, 297, 326, 283, 286, 295, 294, 217, 199, 214, 212, 216, 234, 207, 204, 237, 248, 255, 272, 326, 322, 317, 321, 361, 315, 328, 336, 331, 292, 289, 246, 227, 225, 215, 220, 238, 247, 256, 252, 234, 238, 224, 200, 207, 268, 317, 327, 337, 367, 354, 320, 324, 325, 335, 317, 296, 289, 306, 281, 280},
{561, 581, 553, 552, 483, 352, 329, 344, 373, 353, 360, 367, 342, 310, 341, 321, 341, 364, 349, 432, 421, 393, 405, 427, 337, 358, 379, 367, 331, 324, 325, 338, 325, 331, 330, 315, 267, 299, 348, 331, 322, 335, 384, 370, 364, 376, 378, 291, 303, 345, 346, 357, 404, 369, 343, 383, 373, 315, 352, 401, 369, 378, 390, 401, 393, 403, 384, 406, 403, 389, 371, 387, 372, 399, 370, 389, 388, 375, 324, 320, 330, 320, 309, 292, 340, 388, 416, 429, 453, 479, 460, 459, 456, 451, 380, 323, 272, 317, 278, 298}}

// 24 Reading of the 8 sensors, 100 samples per sensor
{{92, 97, 95, 100, 83, 85, 88, 101, 100, 111, 113, 109, 94, 87, 77, 79, 80, 83, 84, 79, 67, 75, 84, 92, 91, 94, 87, 81, 75, 76, 76, 71, 62, 62, 85, 80, 83, 84, 91, 72, 77, 95, 97, 97, 97, 97, 80, 84, 78, 77, 77, 75, 66, 67, 65, 67, 67, 68, 65, 76, 70, 83, 87, 91, 83, 90, 84, 81, 76, 79, 72, 67, 66, 75, 85, 94, 108, 113, 105, 97, 91, 81, 74, 79, 78, 86, 84, 88, 88, 97, 101, 96, 94, 106, 98, 104, 110, 112, 101, 104},
{100, 101, 92, 99, 94, 98, 100, 113, 110, 104, 102, 96, 82, 80, 72, 76, 78, 81, 106, 106, 100, 102, 102, 79, 79, 91, 91, 88, 92, 102, 91, 86, 86, 91, 88, 87, 92, 103, 95, 83, 86, 98, 86, 88, 91, 101, 87, 98, 97, 97, 88, 89, 92, 98, 99, 103, 102, 89, 76, 70, 59, 64, 72, 75, 79, 82, 86, 76, 83, 84, 83, 72, 71, 59, 53, 57, 73, 79, 87, 94, 88, 76, 71, 75, 67, 71, 69, 80, 70, 68, 80, 85, 82, 93, 97, 87, 88, 84, 72, 80},
{129, 148, 150, 170, 169, 164, 134, 159, 163, 160, 188, 195, 174, 165, 168, 144, 139, 136, 123, 125, 128, 120, 116, 126, 135, 153, 159, 161, 148, 140, 105, 102, 98, 131, 135, 147, 145, 148, 118, 105, 98, 117, 113, 138, 148, 152, 139, 143, 121, 120, 105, 108, 104, 100, 94, 104, 103, 103, 112, 119, 112, 113, 119, 108, 102, 102, 102, 111, 141, 145, 154, 148, 143, 119, 124, 109, 111, 107, 119, 114, 115, 128, 128, 121, 110, 119, 108, 100, 87, 92, 94, 96, 106, 124, 129, 133, 137, 141, 132, 138},
{218, 257, 280, 287, 272, 285, 250, 300, 304, 313, 321, 369, 308, 316, 314, 296, 252, 235, 213, 199, 200, 169, 184, 179, 188, 227, 260, 253, 258, 253, 212, 172, 204, 247, 257, 282, 286, 270, 228, 204, 183, 200, 184, 204, 209, 237, 223, 238, 234, 262, 252, 261, 254, 243, 219, 208, 204, 212, 216, 240, 241, 254, 254, 251, 277, 268, 248, 291, 307, 268, 271, 269, 218, 198, 223, 218, 214, 212, 207, 216, 222, 229, 228, 230, 201, 212, 239, 270, 261, 276, 272, 249, 251, 271, 254, 266, 276, 264, 253, 263},
{75, 76, 72, 65, 64, 61, 61, 71, 76, 76, 79, 78, 65, 62, 69, 67, 69, 68, 75, 68, 75, 71, 76, 70, 70, 61, 63, 60, 61, 68, 70, 74, 83, 101, 97, 97, 95, 88, 66, 64, 64, 62, 61, 57, 62, 67, 66, 65, 70, 67, 65, 64, 64, 63, 64, 59, 60, 61, 60, 59, 59, 61, 70, 77, 76, 76, 77, 73, 70, 73, 69, 69, 62, 63, 63, 82, 85, 88, 85, 90, 77, 75, 72, 72, 71, 71, 65, 66, 64, 58, 67, 71, 81, 90, 96, 89, 93, 84, 72, 60},
{108, 116, 119, 107, 102, 99, 87, 84, 76, 67, 71, 78, 77, 81, 85, 90, 86, 86, 99, 97, 91, 92, 92, 81, 86, 86, 86, 81, 80, 70, 68, 61, 69, 72, 76, 76, 75, 73, 75, 73, 76, 81, 85, 73, 75, 74, 69, 61, 60, 60, 59, 63, 68, 65, 65, 66, 60, 52, 54, 49, 61, 64, 69, 77, 85, 78, 79, 77, 73, 66, 64, 61, 58, 51, 62, 63, 70, 71, 75, 66, 64, 58, 60, 62, 68, 67, 67, 67, 67, 71, 72, 76, 81, 84, 85, 84, 82, 74, 68, 56},
{411, 442, 402, 362, 333, 323, 344, 385, 375, 411, 409, 394, 369, 354, 339, 368, 368, 358, 367, 353, 315, 278, 261, 258, 237, 244, 283, 299, 315, 316, 317, 285, 275, 237, 252, 248, 231, 226, 271, 228, 228, 301, 370, 357, 391, 395, 363, 299, 284, 268, 275, 271, 307, 303, 307, 295, 285, 252, 262, 282, 310, 313, 304, 313, 295, 279, 285, 280, 287, 276, 284, 266, 266, 266, 272, 296, 316, 324, 316, 316, 278, 289, 295, 311, 316, 318, 299, 287, 257, 257, 242, 225, 317, 331, 333, 344, 374, 313, 306, 298},
{336, 345, 351, 367, 320, 308, 361, 426, 457, 478, 500, 487, 434, 380, 400, 454, 444, 453, 466, 432, 371, 413, 435, 451, 427, 410, 366, 343, 323, 340, 334, 303, 275, 279, 341, 350, 336, 329, 356, 287, 288, 341, 354, 319, 320, 313, 294, 282, 282, 311, 324, 320, 347, 339, 328, 333, 308, 274, 299, 372, 359, 402, 439, 466, 394, 414, 388, 385, 353, 383, 387, 394, 361, 429, 482, 509, 546, 554, 508, 445, 380, 331, 308, 309, 327, 380, 386, 404, 390, 408, 417, 393, 379, 445, 422, 473, 497, 509, 466, 471}}

// 25 Reading of the 8 sensors, 100 samples per sensor
{{126, 127, 114, 99, 80, 81, 82, 87, 84, 79, 73, 93, 89, 89, 91, 89, 61, 66, 75, 74, 70, 103, 109, 103, 102, 108, 94, 85, 84, 83, 75, 64, 74, 81, 83, 91, 95, 91, 87, 87, 82, 69, 61, 66, 66, 78, 80, 90, 86, 85, 74, 72, 57, 59, 80, 84, 83, 81, 78, 64, 62, 64, 71, 82, 80, 82, 88, 88, 89, 99, 98, 97, 96, 98, 86, 83, 79, 93, 85, 78, 79, 81, 64, 62, 70, 68, 76, 78, 80, 87, 103, 103, 102, 101, 92, 78, 76, 69, 69, 66},
{83, 81, 74, 73, 74, 72, 77, 88, 87, 92, 89, 82, 70, 69, 59, 62, 56, 69, 71, 79, 88, 119, 119, 122, 120, 119, 96, 94, 100, 104, 104, 99, 98, 93, 90, 99, 113, 108, 105, 100, 85, 76, 77, 80, 79, 85, 91, 95, 87, 100, 102, 94, 88, 91, 80, 79, 70, 72, 75, 73, 63, 67, 72, 93, 92, 95, 95, 106, 97, 104, 105, 119, 119, 123, 124, 138, 125, 113, 113, 104, 76, 79, 83, 86, 108, 109, 117, 116, 99, 91, 111, 104, 115, 120, 114, 102, 118, 106, 124, 121},
{128, 128, 126, 114, 123, 113, 130, 133, 136, 114, 98, 78, 93, 107, 113, 123, 121, 114, 102, 128, 132, 145, 142, 146, 134, 134, 138, 139, 133, 136, 140, 122, 118, 118, 107, 85, 85, 88, 96, 101, 108, 120, 114, 112, 98, 97, 98, 109, 111, 113, 109, 87, 79, 72, 76, 85, 93, 94, 99, 102, 117, 129, 136, 142, 143, 148, 141, 142, 130, 127, 119, 113, 105, 106, 106, 112, 117, 117, 124, 127, 109, 102, 103, 111, 116, 123, 123, 124, 118, 113, 105, 103, 106, 113, 104, 110, 129, 126, 114, 130},
{191, 192, 189, 164, 211, 277, 288, 355, 361, 328, 315, 310, 271, 289, 309, 282, 272, 242, 232, 211, 207, 212, 208, 203, 272, 278, 278, 284, 281, 230, 238, 233, 222, 265, 274, 245, 276, 286, 261, 239, 252, 250, 262, 257, 261, 266, 230, 226, 216, 201, 172, 212, 187, 176, 177, 220, 192, 200, 205, 228, 233, 243, 265, 272, 263, 265, 255, 255, 251, 240, 239, 261, 245, 234, 251, 216, 199, 191, 200, 231, 236, 217, 213, 229, 186, 200, 213, 213, 220, 232, 211, 202, 238, 213, 192, 193, 217, 184, 200, 198},
{57, 55, 59, 66, 67, 64, 69, 73, 67, 64, 78, 73, 73, 72, 76, 65, 67, 66, 69, 66, 66, 70, 65, 56, 58, 55, 56, 57, 62, 59, 58, 52, 58, 63, 67, 72, 72, 69, 69, 66, 62, 66, 66, 63, 61, 64, 54, 58, 56, 63, 59, 64, 64, 59, 53, 56, 54, 47, 55, 55, 58, 64, 67, 69, 70, 66, 60, 66, 63, 70, 74, 72, 74, 70, 65, 62, 69, 60, 62, 69, 71, 65, 65, 64, 58, 55, 54, 55, 56, 52, 51, 54, 66, 74, 73, 74, 75, 63, 56, 56},
{91, 85, 88, 89, 79, 85, 88, 96, 87, 89, 80, 78, 62, 64, 66, 64, 72, 82, 78, 75, 82, 97, 88, 87, 84, 81, 67, 73, 79, 83, 77, 68, 70, 64, 60, 65, 72, 67, 66, 67, 66, 62, 62, 60, 61, 61, 62, 68, 72, 76, 72, 63, 56, 52, 52, 53, 56, 60, 60, 52, 54, 55, 65, 86, 87, 90, 93, 85, 66, 72, 74, 70, 70, 70, 67, 60, 61, 60, 60, 60, 64, 62, 76, 73, 73, 71, 77, 68, 73, 74, 73, 72, 76, 70, 72, 68, 66, 55, 60, 56},
{274, 282, 308, 328, 293, 365, 358, 333, 304, 296, 239, 276, 292, 289, 301, 265, 237, 251, 244, 244, 264, 288, 258, 254, 262, 253, 262, 290, 333, 355, 366, 346, 323, 280, 244, 240, 244, 264, 277, 292, 278, 284, 259, 242, 251, 255, 309, 418, 432, 430, 425, 368, 246, 235, 241, 237, 228, 232, 225, 179, 219, 221, 215, 359, 361, 350, 367, 360, 252, 266, 285, 271, 289, 328, 330, 304, 321, 311, 241, 223, 234, 214, 245, 245, 240, 285, 316, 320, 326, 353, 308, 331, 313, 323, 317, 314, 259, 246, 224, 192},
{585, 561, 481, 460, 351, 379, 394, 408, 373, 348, 345, 444, 474, 532, 553, 510, 414, 361, 319, 280, 277, 309, 333, 314, 321, 324, 355, 336, 336, 358, 361, 358, 353, 335, 332, 330, 307, 334, 360, 377, 380, 354, 317, 289, 299, 327, 375, 476, 482, 458, 439, 401, 273, 282, 329, 310, 291, 286, 260, 205, 302, 320, 340, 374, 365, 314, 321, 306, 321, 377, 398, 388, 429, 431, 391, 358, 369, 382, 379, 365, 386, 381, 309, 263, 262, 263, 334, 359, 358, 410, 404, 442, 438, 442, 417, 407, 307, 295, 291, 266}}

// 26 Reading of the 8 sensors, 100 samples per sensor
{{132, 118, 115, 112, 121, 113, 108, 102, 98, 84, 74, 83, 86, 82, 79, 90, 82, 78, 86, 83, 75, 78, 79, 67, 65, 66, 66, 64, 67, 72, 70, 76, 82, 83, 79, 79, 77, 77, 80, 86, 86, 81, 74, 65, 63, 66, 61, 61, 63, 59, 58, 67, 66, 72, 72, 76, 74, 72, 70, 73, 75, 79, 82, 76, 91, 89, 78, 80, 85, 70, 70, 76, 76, 81, 77, 70, 70, 71, 71, 71, 75, 71, 77, 73, 73, 76, 89, 85, 84, 84, 84, 74, 77, 72, 83, 76, 87, 83, 93, 88},
{108, 106, 116, 109, 109, 98, 94, 78, 77, 72, 68, 68, 69, 70, 66, 69, 76, 79, 77, 79, 84, 81, 80, 80, 79, 74, 76, 65, 67, 65, 74, 70, 78, 83, 89, 81, 79, 73, 84, 85, 86, 86, 91, 73, 67, 70, 70, 67, 74, 70, 68, 80, 77, 71, 77, 87, 80, 82, 90, 88, 87, 86, 91, 84, 84, 64, 60, 54, 58, 54, 56, 50, 50, 46, 51, 56, 64, 62, 73, 71, 72, 73, 75, 67, 70, 70, 72, 80, 76, 72, 74, 79, 75, 78, 88, 90, 82, 81, 110, 104},
{115, 116, 120, 124, 125, 127, 148, 154, 140, 157, 156, 137, 128, 134, 139, 138, 156, 183, 183, 173, 173, 156, 132, 139, 126, 145, 142, 125, 128, 124, 112, 120, 121, 106, 118, 122, 114, 114, 108, 101, 81, 89, 99, 102, 104, 132, 132, 125, 126, 130, 104, 106, 117, 118, 112, 115, 111, 105, 117, 118, 109, 107, 99, 83, 87, 89, 91, 107, 108, 103, 102, 100, 102, 102, 111, 128, 126, 127, 125, 115, 111, 118, 109, 111, 115, 105, 99, 92, 97, 98, 99, 101, 101, 97, 98, 93, 93, 92, 98, 98},
{335, 322, 318, 317, 309, 292, 349, 354, 340, 351, 329, 249, 293, 300, 334, 338, 336, 328, 328, 318, 310, 304, 287, 299, 278, 320, 314, 283, 290, 284, 267, 266, 267, 252, 272, 242, 242, 243, 258, 217, 210, 232, 246, 214, 248, 295, 281, 270, 274, 265, 215, 213, 232, 220, 209, 218, 214, 214, 253, 245, 283, 283, 266, 244, 247, 177, 182, 191, 174, 163, 179, 184, 193, 198, 195, 194, 197, 188, 190, 200, 203, 210, 210, 202, 192, 192, 161, 154, 183, 195, 202, 214, 219, 200, 209, 191, 194, 179, 195, 175},
{104, 96, 94, 102, 96, 84, 111, 118, 114, 114, 121, 102, 98, 93, 87, 79, 70, 75, 76, 72, 71, 79, 73, 73, 70, 75, 71, 74, 94, 97, 97, 93, 91, 71, 75, 71, 73, 68, 73, 65, 65, 71, 76, 74, 75, 82, 78, 78, 84, 84, 75, 70, 62, 56, 64, 75, 79, 81, 87, 84, 77, 82, 80, 68, 69, 73, 65, 67, 70, 62, 54, 52, 54, 52, 50, 60, 66, 66, 65, 64, 62, 68, 70, 73, 77, 77, 65, 63, 62, 64, 60, 64, 64, 62, 59, 57, 60, 57, 62, 63},
{114, 109, 111, 124, 130, 123, 128, 125, 113, 95, 83, 77, 79, 69, 65, 57, 59, 58, 68, 82, 89, 87, 84, 79, 64, 56, 63, 65, 62, 63, 61, 59, 64, 72, 73, 81, 83, 77, 67, 62, 57, 78, 80, 81, 86, 88, 65, 66, 66, 66, 59, 57, 55, 59, 61, 66, 70, 75, 72, 69, 65, 61, 55, 60, 62, 64, 66, 67, 63, 68, 70, 68, 68, 66, 62, 55, 61, 59, 62, 57, 59, 52, 55, 51, 52, 59, 59, 56, 59, 55, 46, 50, 55, 53, 55, 60, 56, 53, 61, 62},
{491, 460, 451, 417, 368, 263, 263, 248, 240, 222, 217, 224, 266, 272, 295, 282, 293, 289, 318, 314, 342, 359, 333, 323, 314, 287, 275, 324, 292, 286, 303, 282, 236, 296, 298, 301, 343, 333, 289, 284, 262, 224, 250, 263, 281, 294, 281, 279, 276, 253, 243, 255, 277, 276, 290, 300, 334, 300, 289, 278, 330, 304, 314, 321, 341, 272, 244, 259, 263, 287, 315, 328, 310, 316, 301, 269, 267, 273, 293, 272, 318, 319, 328, 347, 340, 345, 350, 335, 291, 300, 255, 252, 291, 299, 326, 335, 318, 290, 317, 283},
{749, 655, 651, 549, 555, 450, 426, 439, 424, 393, 344, 377, 376, 375, 352, 371, 365, 342, 405, 425, 432, 437, 445, 365, 334, 316, 340, 363, 374, 382, 394, 419, 433, 514, 499, 490, 493, 476, 412, 445, 442, 370, 364, 332, 309, 361, 359, 344, 339, 324, 253, 287, 294, 344, 338, 372, 384, 363, 319, 360, 349, 360, 369, 369, 435, 470, 420, 425, 438, 409, 389, 426, 440, 442, 377, 333, 313, 275, 286, 299, 313, 282, 303, 330, 326, 347, 424, 417, 379, 377, 397, 342, 418, 410, 424, 393, 411, 338, 383, 402}}

// 27 Reading of the 8 sensors, 100 samples per sensor
{{112, 80, 74, 69, 69, 66, 69, 74, 80, 81, 78, 81, 78, 82, 79, 79, 82, 79, 75, 77, 84, 95, 112, 110, 105, 112, 115, 110, 120, 123, 114, 108, 100, 89, 84, 81, 71, 74, 81, 96, 97, 93, 92, 84, 66, 76, 83, 91, 94, 101, 110, 106, 95, 90, 85, 66, 77, 79, 87, 98, 100, 91, 91, 88, 73, 64, 67, 61, 70, 72, 83, 83, 90, 78, 77, 73, 72, 69, 70, 69, 75, 75, 81, 79, 78, 72, 76, 70, 71, 73, 77, 76, 73, 81, 83, 72, 68, 76, 72, 81},
{95, 65, 66, 70, 86, 80, 88, 84, 85, 77, 85, 85, 88, 92, 91, 91, 86, 83, 75, 81, 76, 76, 88, 90, 81, 78, 102, 95, 96, 99, 98, 82, 82, 82, 77, 79, 66, 70, 82, 84, 91, 89, 85, 72, 66, 59, 66, 68, 67, 70, 66, 63, 56, 54, 56, 72, 74, 73, 71, 73, 55, 49, 58, 59, 48, 58, 65, 59, 65, 72, 66, 64, 64, 58, 54, 57, 54, 56, 55, 54, 48, 50, 57, 58, 57, 57, 56, 47, 43, 45, 59, 59, 63, 69, 65, 57, 56, 56, 59, 72},
{123, 104, 87, 79, 90, 84, 85, 85, 102, 100, 105, 116, 128, 125, 128, 127, 133, 123, 117, 115, 113, 95, 88, 94, 95, 115, 123, 127, 125, 118, 96, 82, 83, 102, 108, 118, 125, 124, 124, 143, 147, 148, 152, 138, 113, 105, 92, 85, 91, 103, 97, 112, 113, 112, 113, 118, 106, 110, 116, 109, 105, 119, 129, 127, 118, 115, 102, 81, 79, 88, 107, 104, 111, 110, 102, 118, 119, 116, 113, 126, 99, 95, 90, 96, 96, 91, 108, 110, 107, 94, 101, 110, 120, 121, 123, 127, 112, 115, 161, 190},
{306, 329, 316, 293, 254, 237, 248, 241, 262, 285, 289, 322, 339, 348, 350, 381, 372, 352, 322, 310, 270, 256, 281, 279, 277, 287, 256, 226, 230, 214, 219, 182, 176, 205, 228, 256, 263, 259, 253, 287, 261, 287, 291, 280, 262, 249, 210, 248, 243, 231, 226, 244, 208, 234, 217, 219, 242, 303, 286, 301, 301, 292, 230, 232, 228, 246, 220, 230, 228, 218, 268, 266, 261, 269, 261, 218, 244, 280, 265, 269, 258, 253, 213, 262, 261, 254, 234, 225, 174, 176, 178, 240, 291, 290, 289, 305, 267, 259, 328, 398},
{72, 71, 76, 73, 77, 75, 75, 73, 78, 75, 76, 73, 82, 89, 87, 88, 90, 80, 68, 64, 66, 55, 66, 67, 79, 77, 80, 82, 85, 82, 80, 83, 75, 80, 78, 78, 81, 90, 82, 100, 102, 95, 90, 89, 63, 66, 69, 64, 63, 68, 64, 64, 71, 70, 68, 66, 72, 80, 81, 79, 83, 75, 64, 66, 66, 60, 64, 60, 63, 64, 74, 73, 70, 70, 69, 57, 52, 65, 67, 75, 76, 77, 72, 72, 73, 75, 78, 82, 77, 70, 74, 79, 69, 68, 72, 68, 63, 65, 80, 97},
{81, 71, 74, 78, 77, 66, 67, 75, 77, 92, 91, 94, 86, 88, 75, 72, 69, 65, 59, 57, 66, 77, 81, 84, 88, 94, 91, 107, 107, 107, 98, 97, 81, 85, 81, 81, 83, 81, 79, 93, 93, 86, 91, 83, 69, 73, 73, 69, 70, 68, 73, 76, 72, 71, 76, 67, 72, 72, 73, 75, 85, 83, 81, 88, 83, 70, 64, 59, 52, 54, 63, 63, 86, 89, 87, 83, 81, 59, 56, 58, 60, 62, 68, 63, 59, 62, 62, 53, 50, 52, 51, 57, 65, 68, 75, 72, 67, 61, 63, 73},
{233, 207, 219, 229, 235, 230, 217, 204, 188, 201, 200, 199, 232, 254, 233, 241, 258, 229, 261, 302, 301, 312, 317, 306, 267, 372, 356, 412, 431, 463, 387, 426, 391, 355, 323, 316, 284, 298, 312, 340, 340, 353, 329, 316, 315, 319, 310, 310, 330, 301, 325, 308, 316, 287, 284, 271, 286, 283, 337, 352, 376, 379, 392, 370, 353, 310, 285, 269, 270, 266, 260, 276, 290, 278, 285, 294, 279, 276, 271, 285, 308, 313, 299, 281, 279, 261, 267, 261, 275, 276, 304, 301, 312, 309, 309, 279, 270, 307, 320, 381},
{431, 385, 357, 351, 353, 349, 340, 313, 295, 297, 287, 309, 306, 358, 344, 350, 361, 361, 346, 373, 412, 496, 555, 537, 517, 544, 480, 482, 553, 571, 518, 510, 450, 372, 328, 345, 346, 374, 368, 489, 475, 459, 454, 448, 336, 375, 377, 407, 435, 446, 462, 475, 446, 402, 382, 344, 362, 326, 396, 416, 438, 408, 453, 467, 449, 411, 426, 376, 342, 330, 344, 364, 396, 345, 342, 330, 282, 255, 275, 282, 353, 362, 415, 399, 400, 358, 384, 336, 346, 346, 398, 391, 367, 399, 391, 308, 289, 347, 334, 401}}

// 28 Reading of the 8 sensors, 100 samples per sensor
{{100, 88, 71, 71, 77, 74, 75, 77, 80, 73, 66, 64, 67, 66, 73, 83, 79, 95, 100, 95, 89, 87, 71, 59, 61, 59, 67, 65, 72, 73, 73, 70, 70, 83, 79, 85, 85, 79, 66, 69, 63, 65, 71, 67, 64, 71, 86, 85, 87, 90, 93, 83, 80, 78, 76, 64, 59, 81, 80, 85, 85, 87, 73, 78, 71, 81, 77, 74, 75, 75, 62, 71, 81, 81, 89, 98, 91, 80, 76, 62, 55, 62, 65, 74, 77, 77, 73, 87, 83, 84, 83, 92, 82, 83, 84, 82, 71, 72, 70, 72},
{66, 67, 69, 75, 76, 78, 79, 80, 78, 88, 87, 87, 82, 80, 68, 69, 58, 77, 83, 83, 81, 82, 79, 77, 77, 76, 77, 67, 66, 68, 68, 69, 72, 81, 79, 80, 75, 70, 66, 67, 77, 83, 95, 96, 94, 96, 109, 98, 94, 93, 88, 69, 63, 57, 60, 66, 67, 72, 74, 72, 59, 55, 53, 58, 66, 94, 93, 92, 96, 90, 64, 75, 73, 74, 74, 76, 74, 86, 81, 89, 91, 87, 75, 76, 70, 67, 64, 85, 90, 90, 91, 96, 83, 82, 91, 91, 93, 89, 84, 77},
{120, 121, 144, 145, 141, 128, 120, 86, 91, 86, 80, 105, 108, 109, 116, 121, 110, 113, 105, 97, 93, 84, 79, 75, 79, 86, 89, 92, 105, 110, 101, 97, 95, 82, 77, 82, 79, 84, 90, 84, 84, 93, 88, 83, 86, 82, 85, 80, 78, 82, 84, 78, 82, 78, 79, 79, 76, 78, 83, 86, 84, 84, 80, 78, 81, 84, 91, 88, 88, 79, 83, 83, 90, 99, 101, 97, 91, 94, 95, 100, 107, 111, 105, 105, 94, 87, 85, 107, 105, 108, 114, 114, 92, 80, 88, 100, 106, 113, 119, 117},
{232, 208, 225, 219, 192, 165, 168, 157, 180, 185, 188, 209, 200, 181, 194, 207, 219, 235, 263, 254, 235, 200, 206, 177, 175, 178, 194, 170, 158, 190, 206, 186, 181, 188, 152, 117, 107, 115, 103, 108, 150, 153, 146, 150, 185, 158, 166, 183, 183, 189, 184, 180, 164, 156, 97, 105, 105, 106, 105, 113, 124, 162, 166, 170, 174, 163, 124, 148, 144, 133, 146, 152, 121, 128, 127, 111, 99, 104, 100, 121, 127, 128, 124, 121, 96, 94, 108, 154, 164, 167, 178, 173, 149, 172, 191, 209, 245, 247, 242, 230},
{58, 60, 58, 61, 56, 55, 51, 52, 48, 52, 54, 60, 58, 61, 65, 67, 64, 83, 79, 77, 73, 70, 63, 68, 69, 70, 77, 67, 67, 61, 62, 55, 53, 50, 52, 51, 47, 49, 48, 44, 45, 53, 55, 60, 63, 62, 61, 59, 52, 51, 51, 49, 45, 45, 45, 52, 55, 55, 59, 65, 71, 72, 74, 74, 68, 57, 49, 48, 46, 45, 50, 56, 53, 50, 62, 65, 60, 66, 67, 56, 52, 56, 55, 59, 67, 67, 71, 72, 68, 62, 64, 60, 53, 62, 64, 60, 60, 63, 62, 68},
{64, 69, 65, 69, 69, 58, 59, 65, 64, 65, 65, 69, 64, 65, 71, 84, 75, 88, 89, 84, 71, 69, 71, 75, 73, 75, 76, 64, 59, 59, 57, 59, 52, 45, 44, 52, 49, 54, 59, 58, 58, 62, 58, 55, 56, 57, 65, 66, 69, 68, 62, 63, 61, 59, 61, 62, 53, 63, 61, 65, 62, 63, 55, 57, 51, 52, 49, 52, 57, 62, 59, 59, 67, 71, 70, 72, 72, 71, 59, 55, 56, 52, 37, 39, 43, 42, 44, 49, 53, 60, 69, 70, 69, 68, 65, 53, 51, 64, 68, 77},
{309, 309, 310, 322, 339, 316, 295, 278, 270, 231, 182, 175, 202, 195, 207, 232, 227, 238, 246, 226, 221, 227, 240, 230, 225, 267, 265, 241, 255, 253, 198, 215, 208, 184, 187, 275, 301, 331, 360, 368, 321, 297, 278, 242, 248, 245, 280, 255, 266, 266, 261, 290, 294, 291, 306, 292, 220, 268, 282, 288, 298, 374, 344, 353, 348, 391, 351, 368, 370, 388, 336, 313, 300, 278, 258, 274, 276, 256, 267, 245, 269, 254, 263, 270, 273, 248, 254, 293, 323, 327, 347, 359, 337, 299, 285, 268, 240, 261, 266, 272},
{494, 403, 344, 333, 412, 387, 399, 423, 463, 381, 352, 322, 302, 240, 281, 295, 291, 330, 343, 307, 299, 296, 307, 283, 262, 299, 322, 282, 316, 339, 295, 290, 276, 262, 231, 350, 362, 356, 385, 392, 297, 300, 319, 275, 301, 317, 386, 389, 392, 422, 441, 381, 373, 372, 352, 313, 313, 368, 380, 397, 396, 439, 398, 403, 381, 439, 388, 393, 415, 435, 376, 382, 429, 386, 428, 457, 465, 408, 429, 346, 334, 329, 335, 324, 357, 368, 369, 471, 525, 513, 509, 511, 426, 377, 374, 342, 333, 328, 322, 354}}

// 29 Reading of the 8 sensors, 100 samples per sensor
{{95, 93, 89, 80, 80, 77, 76, 81, 82, 72, 77, 85, 82, 89, 95, 97, 88, 88, 93, 93, 88, 91, 90, 82, 72, 75, 75, 75, 66, 66, 65, 73, 71, 73, 75, 75, 65, 60, 55, 52, 50, 56, 62, 77, 82, 82, 77, 86, 71, 68, 74, 73, 87, 93, 97, 94, 99, 95, 100, 94, 93, 89, 70, 83, 86, 101, 107, 109, 95, 97, 80, 76, 72, 65, 61, 60, 62, 64, 69, 68, 69, 65, 58, 62, 62, 68, 65, 68, 65, 62, 57, 61, 60, 59, 84, 96, 95, 101, 102, 108},
{80, 84, 87, 102, 108, 102, 102, 101, 90, 88, 86, 87, 85, 86, 87, 85, 85, 89, 85, 78, 77, 84, 80, 76, 74, 85, 71, 73, 75, 77, 74, 77, 77, 75, 81, 87, 82, 83, 88, 81, 83, 99, 95, 91, 101, 88, 76, 77, 76, 67, 68, 63, 63, 71, 78, 80, 81, 105, 101, 96, 96, 95, 69, 68, 77, 91, 96, 99, 101, 95, 82, 74, 71, 64, 69, 76, 83, 80, 87, 86, 77, 70, 74, 75, 67, 69, 67, 70, 78, 76, 79, 93, 101, 94, 105, 110, 105, 98, 100, 117},
{135, 132, 115, 121, 127, 135, 161, 163, 169, 170, 167, 144, 145, 137, 132, 125, 136, 154, 144, 136, 132, 144, 120, 129, 131, 137, 113, 106, 108, 105, 106, 115, 122, 108, 107, 105, 92, 93, 100, 102, 107, 111, 109, 102, 115, 112, 108, 106, 116, 104, 97, 98, 102, 95, 102, 104, 96, 85, 95, 111, 112, 113, 122, 123, 111, 111, 115, 114, 104, 93, 105, 102, 95, 96, 117, 105, 104, 103, 101, 79, 76, 75, 83, 82, 76, 77, 76, 73, 97, 102, 99, 111, 106, 86, 101, 116, 131, 134, 138, 130},
{281, 278, 252, 249, 257, 264, 267, 252, 273, 255, 242, 218, 206, 160, 171, 168, 196, 228, 231, 226, 232, 246, 269, 287, 280, 292, 277, 260, 255, 264, 242, 279, 255, 256, 252, 254, 202, 198, 191, 215, 224, 228, 240, 235, 229, 220, 225, 204, 246, 243, 225, 249, 257, 210, 219, 233, 206, 201, 233, 242, 263, 258, 273, 273, 257, 226, 248, 227, 200, 212, 215, 197, 225, 237, 252, 248, 249, 225, 240, 249, 249, 246, 248, 212, 139, 140, 126, 143, 220, 233, 249, 262, 254, 210, 235, 245, 246, 242, 232, 230},
{69, 64, 70, 74, 65, 70, 70, 69, 67, 75, 75, 71, 75, 75, 69, 79, 81, 85, 87, 86, 75, 88, 76, 73, 72, 72, 52, 51, 58, 62, 58, 81, 86, 86, 84, 84, 72, 72, 77, 77, 82, 76, 76, 63, 67, 59, 61, 60, 62, 62, 62, 58, 55, 56, 52, 53, 52, 54, 51, 54, 62, 67, 62, 70, 68, 60, 54, 66, 64, 67, 76, 76, 75, 72, 68, 55, 65, 60, 60, 59, 66, 60, 60, 58, 60, 54, 56, 53, 78, 91, 94, 94, 98, 77, 70, 78, 80, 75, 76, 69},
{83, 62, 52, 50, 48, 55, 52, 82, 89, 88, 88, 87, 71, 67, 68, 74, 80, 73, 74, 79, 73, 69, 79, 82, 81, 81, 81, 74, 73, 67, 65, 66, 60, 56, 55, 57, 61, 69, 67, 67, 65, 68, 64, 60, 59, 59, 49, 49, 51, 53, 59, 58, 66, 65, 67, 60, 64, 58, 62, 59, 59, 55, 46, 54, 55, 63, 69, 70, 64, 63, 59, 53, 59, 59, 57, 59, 69, 66, 63, 66, 64, 54, 51, 52, 53, 49, 46, 43, 52, 49, 50, 58, 64, 56, 62, 62, 62, 60, 60, 64},
{344, 304, 290, 312, 306, 340, 310, 324, 316, 326, 289, 323, 321, 316, 295, 362, 344, 326, 369, 375, 304, 311, 319, 270, 313, 314, 311, 297, 312, 272, 288, 299, 299, 312, 299, 287, 264, 271, 244, 260, 269, 339, 336, 350, 334, 321, 262, 282, 257, 278, 324, 326, 346, 342, 332, 290, 285, 228, 256, 256, 306, 305, 306, 354, 375, 371, 369, 374, 306, 271, 217, 231, 244, 236, 263, 268, 270, 289, 322, 309, 328, 354, 357, 333, 335, 335, 299, 252, 270, 254, 266, 296, 316, 302, 349, 368, 359, 350, 359, 430},
{417, 392, 367, 339, 373, 387, 345, 341, 411, 379, 396, 443, 472, 438, 442, 488, 450, 424, 443, 464, 413, 416, 407, 397, 355, 333, 347, 369, 312, 323, 343, 401, 387, 393, 391, 392, 318, 303, 304, 292, 281, 317, 322, 342, 325, 334, 314, 382, 349, 350, 360, 347, 450, 477, 490, 469, 473, 300, 325, 297, 308, 327, 321, 349, 374, 377, 376, 383, 327, 326, 306, 320, 348, 336, 335, 345, 321, 334, 384, 373, 377, 416, 377, 331, 399, 432, 404, 397, 424, 350, 292, 294, 308, 243, 324, 382, 383, 391, 418, 464}}

// 30 Reading of the 8 sensors, 100 samples per sensor
{{130, 99, 107, 111, 113, 100, 112, 103, 96, 105, 94, 84, 82, 91, 86, 89, 96, 93, 96, 100, 97, 89, 103, 97, 91, 91, 103, 93, 99, 103, 102, 88, 85, 80, 78, 93, 89, 88, 86, 80, 73, 90, 94, 91, 102, 97, 96, 99, 116, 111, 110, 101, 97, 77, 73, 77, 78, 81, 90, 93, 91, 91, 85, 74, 79, 87, 100, 100, 112, 109, 111, 100, 110, 101, 104, 104, 103, 90, 88, 83, 78, 73, 80, 78, 78, 75, 86, 83, 87, 85, 78, 69, 78, 83, 78, 88, 88, 90, 88, 94},
{121, 109, 95, 79, 100, 102, 99, 101, 108, 85, 94, 96, 95, 91, 135, 126, 126, 136, 142, 113, 128, 128, 122, 112, 104, 79, 83, 79, 95, 97, 98, 93, 95, 95, 101, 127, 132, 128, 117, 108, 74, 76, 81, 84, 87, 93, 88, 90, 97, 98, 101, 95, 88, 81, 85, 82, 88, 94, 103, 104, 111, 106, 100, 91, 80, 63, 70, 71, 75, 74, 79, 74, 80, 72, 85, 84, 85, 79, 87, 72, 82, 82, 83, 76, 84, 72, 72, 77, 85, 89, 93, 91, 101, 97, 87, 90, 90, 83, 80, 90},
{177, 160, 161, 197, 199, 183, 183, 182, 147, 131, 157, 175, 174, 168, 170, 147, 124, 134, 138, 137, 126, 133, 138, 137, 142, 151, 147, 126, 137, 138, 132, 123, 141, 167, 213, 224, 232, 227, 201, 140, 117, 158, 176, 170, 172, 181, 136, 107, 121, 138, 129, 138, 147, 136, 121, 121, 123, 110, 110, 134, 132, 120, 117, 122, 102, 107, 115, 113, 128, 125, 137, 141, 149, 146, 140, 132, 119, 112, 146, 148, 150, 178, 184, 152, 150, 144, 145, 133, 131, 135, 135, 98, 106, 108, 121, 151, 170, 170, 179, 182},
{303, 301, 298, 310, 310, 251, 247, 245, 268, 262, 264, 275, 276, 226, 237, 250, 247, 239, 251, 233, 229, 231, 304, 303, 305, 312, 335, 263, 251, 250, 245, 244, 286, 343, 417, 434, 424, 406, 355, 265, 228, 247, 289, 301, 305, 311, 278, 222, 211, 230, 214, 232, 227, 220, 205, 231, 244, 261, 257, 254, 248, 216, 209, 229, 215, 229, 243, 235, 223, 231, 231, 228, 237, 293, 295, 289, 281, 285, 317, 322, 311, 324, 324, 252, 237, 239, 246, 258, 244, 250, 240, 214, 198, 229, 258, 274, 292, 300, 301, 291},
{84, 92, 88, 91, 91, 86, 85, 86, 79, 79, 78, 81, 83, 87, 87, 86, 77, 75, 72, 70, 83, 82, 80, 83, 85, 75, 76, 75, 76, 77, 77, 83, 81, 77, 83, 79, 74, 76, 77, 67, 68, 72, 82, 86, 85, 86, 81, 78, 69, 70, 71, 78, 72, 74, 77, 83, 83, 90, 90, 87, 79, 73, 64, 62, 60, 67, 72, 72, 78, 79, 77, 70, 74, 73, 74, 71, 74, 70, 73, 77, 73, 79, 78, 72, 67, 69, 72, 82, 86, 88, 88, 85, 80, 77, 76, 86, 84, 85, 102, 114},
{100, 104, 101, 103, 85, 76, 79, 68, 63, 72, 75, 84, 86, 90, 89, 94, 88, 85, 94, 94, 92, 82, 85, 74, 64, 71, 73, 71, 73, 76, 75, 82, 84, 82, 79, 68, 57, 64, 81, 90, 95, 102, 98, 91, 86, 84, 77, 75, 66, 67, 72, 72, 73, 84, 81, 76, 80, 82, 70, 73, 72, 65, 58, 67, 71, 75, 86, 100, 97, 100, 105, 97, 90, 86, 81, 73, 74, 70, 72, 66, 71, 75, 69, 69, 71, 62, 57, 54, 54, 58, 59, 63, 67, 71, 65, 74, 72, 90, 91, 94},
{316, 291, 328, 366, 363, 413, 417, 398, 372, 373, 332, 378, 368, 361, 363, 319, 255, 265, 315, 327, 310, 320, 305, 296, 269, 306, 319, 335, 339, 354, 352, 355, 362, 326, 318, 296, 327, 327, 355, 402, 409, 385, 360, 364, 308, 320, 306, 320, 330, 327, 320, 353, 341, 354, 356, 342, 292, 349, 313, 322, 319, 313, 252, 285, 351, 369, 396, 406, 399, 374, 400, 389, 396, 383, 381, 372, 381, 374, 389, 348, 373, 360, 339, 310, 317, 226, 254, 263, 281, 302, 315, 285, 299, 342, 351, 365, 418, 546, 522, 507},
{481, 404, 474, 517, 511, 534, 553, 486, 437, 431, 353, 350, 349, 355, 388, 383, 362, 338, 382, 406, 378, 390, 409, 386, 327, 347, 398, 414, 411, 466, 467, 403, 397, 404, 353, 374, 374, 355, 333, 348, 386, 432, 425, 444, 444, 387, 363, 391, 414, 397, 435, 426, 401, 369, 381, 375, 357, 365, 387, 382, 359, 355, 373, 362, 470, 483, 557, 542, 544, 460, 457, 368, 408, 402, 394, 405, 406, 349, 330, 329, 291, 276, 306, 297, 347, 336, 352, 351, 385, 341, 339, 315, 325, 325, 330, 397, 443, 486, 483, 477}}

// 31 Reading of the 8 sensors, 100 samples per sensor
{{74, 75, 79, 85, 77, 84, 78, 80, 78, 75, 65, 68, 76, 70, 72, 76, 80, 76, 75, 78, 80, 75, 69, 68, 65, 64, 60, 62, 64, 72, 71, 74, 72, 80, 77, 83, 83, 82, 71, 67, 53, 53, 58, 58, 58, 62, 62, 57, 61, 60, 61, 58, 58, 62, 64, 65, 67, 76, 71, 64, 64, 63, 49, 54, 57, 53, 52, 52, 46, 70, 84, 85, 87, 88, 70, 56, 56, 61, 63, 69, 66, 68, 72, 74, 71, 73, 81, 74, 69, 66, 77, 84, 85, 88, 89, 78, 56, 51, 47, 48},
{90, 99, 85, 84, 84, 83, 64, 73, 71, 72, 70, 67, 65, 63, 61, 70, 71, 74, 75, 84, 79, 87, 80, 77, 80, 88, 77, 76, 94, 84, 72, 75, 79, 69, 67, 68, 69, 69, 63, 68, 74, 77, 82, 84, 79, 77, 74, 71, 73, 85, 84, 97, 100, 95, 88, 87, 74, 78, 75, 72, 78, 82, 76, 79, 82, 80, 81, 72, 72, 104, 111, 108, 111, 114, 86, 74, 71, 74, 65, 73, 68, 79, 73, 80, 68, 72, 64, 67, 65, 66, 76, 97, 99, 98, 102, 93, 71, 66, 64, 60},
{136, 144, 125, 120, 122, 120, 121, 119, 116, 113, 116, 113, 104, 111, 147, 152, 155, 159, 160, 141, 132, 127, 123, 116, 98, 87, 78, 94, 97, 99, 100, 108, 92, 82, 75, 86, 82, 87, 94, 97, 93, 93, 98, 104, 105, 97, 98, 100, 96, 96, 99, 93, 77, 75, 81, 87, 104, 111, 111, 105, 109, 105, 109, 116, 118, 109, 97, 87, 80, 92, 112, 117, 126, 128, 116, 95, 99, 81, 77, 88, 97, 91, 97, 106, 106, 115, 114, 122, 119, 120, 109, 115, 105, 95, 94, 99, 97, 99, 113, 110},
{281, 264, 239, 233, 235, 252, 251, 255, 269, 291, 289, 262, 253, 248, 238, 255, 286, 291, 308, 312, 293, 264, 264, 235, 225, 202, 213, 219, 219, 200, 251, 242, 226, 230, 211, 170, 227, 250, 267, 281, 280, 241, 241, 213, 229, 215, 236, 224, 216, 191, 191, 164, 172, 192, 183, 219, 219, 235, 246, 248, 225, 240, 220, 247, 261, 258, 257, 260, 237, 242, 260, 252, 254, 225, 214, 191, 229, 211, 222, 217, 207, 175, 186, 190, 229, 237, 229, 244, 245, 212, 239, 232, 224, 231, 236, 283, 290, 282, 270, 288},
{76, 76, 67, 64, 65, 67, 67, 66, 61, 59, 57, 55, 56, 54, 59, 79, 83, 82, 91, 101, 88, 84, 85, 77, 58, 62, 68, 64, 60, 61, 58, 51, 57, 59, 61, 61, 65, 65, 66, 64, 59, 56, 54, 51, 48, 50, 52, 57, 59, 62, 63, 57, 53, 54, 52, 50, 51, 47, 48, 49, 51, 50, 52, 48, 55, 59, 60, 59, 63, 58, 55, 60, 61, 55, 55, 55, 50, 48, 49, 46, 67, 102, 108, 119, 120, 109, 82, 76, 64, 65, 69, 62, 60, 60, 58, 64, 68, 66, 63, 71},
{78, 85, 86, 107, 102, 105, 101, 96, 78, 72, 70, 83, 90, 95, 99, 98, 90, 83, 78, 84, 85, 86, 82, 73, 62, 75, 75, 75, 74, 80, 81, 79, 78, 86, 88, 72, 69, 78, 73, 68, 67, 70, 73, 71, 67, 68, 65, 68, 84, 84, 92, 88, 77, 71, 74, 62, 62, 64, 58, 64, 66, 67, 68, 64, 60, 63, 72, 70, 68, 64, 67, 58, 59, 61, 67, 66, 68, 70, 74, 73, 75, 75, 83, 83, 82, 75, 82, 73, 70, 64, 79, 71, 75, 76, 79, 64, 62, 51, 52, 73},
{238, 270, 248, 278, 277, 321, 330, 343, 356, 356, 318, 326, 372, 344, 356, 350, 334, 267, 262, 293, 313, 304, 333, 328, 294, 294, 264, 258, 253, 267, 272, 279, 283, 314, 294, 269, 271, 322, 295, 300, 301, 304, 219, 221, 213, 226, 231, 245, 295, 310, 321, 323, 325, 283, 264, 247, 240, 244, 245, 253, 241, 237, 215, 219, 239, 249, 242, 248, 266, 284, 280, 282, 288, 288, 244, 271, 267, 257, 237, 254, 224, 233, 288, 307, 309, 322, 330, 269, 233, 211, 219, 206, 257, 263, 273, 274, 273, 273, 288, 276},
{284, 280, 286, 355, 349, 367, 396, 410, 401, 391, 361, 353, 356, 321, 319, 332, 353, 334, 333, 382, 411, 410, 411, 409, 381, 344, 295, 300, 294, 298, 325, 337, 348, 366, 355, 357, 350, 333, 294, 313, 272, 277, 266, 268, 235, 230, 225, 257, 278, 271, 279, 274, 257, 262, 261, 270, 279, 305, 305, 305, 281, 272, 220, 249, 260, 275, 282, 278, 268, 304, 309, 303, 315, 309, 266, 260, 268, 297, 299, 315, 314, 299, 291, 312, 304, 329, 344, 321, 271, 242, 257, 257, 261, 273, 276, 221, 201, 232, 239, 251}}

// 32 Reading of the 8 sensors, 100 samples per sensor
{{73, 76, 80, 72, 73, 68, 64, 57, 59, 64, 65, 68, 67, 72, 64, 70, 66, 78, 81, 91, 101, 106, 99, 114, 109, 95, 94, 98, 72, 66, 67, 65, 63, 75, 77, 79, 79, 82, 79, 73, 83, 87, 82, 79, 84, 72, 67, 66, 64, 74, 77, 74, 71, 69, 53, 40, 40, 49, 54, 55, 59, 59, 57, 59, 58, 68, 69, 71, 65, 78, 77, 83, 81, 81, 77, 70, 67, 63, 70, 68, 66, 62, 64, 63, 63, 62, 68, 72, 70, 67, 71, 70, 66, 67, 85, 86, 84, 84, 83, 65},
{89, 77, 78, 74, 89, 88, 100, 98, 103, 95, 87, 84, 84, 84, 78, 90, 87, 107, 110, 114, 104, 105, 79, 88, 86, 87, 85, 86, 66, 63, 63, 63, 67, 74, 73, 79, 77, 76, 75, 88, 91, 94, 107, 103, 91, 82, 85, 75, 76, 80, 88, 81, 76, 76, 72, 71, 68, 67, 70, 73, 58, 63, 63, 58, 68, 85, 82, 85, 85, 85, 89, 88, 85, 84, 82, 59, 67, 65, 73, 63, 61, 53, 63, 62, 72, 74, 76, 77, 74, 66, 71, 74, 67, 65, 67, 63, 56, 53, 59, 55},
{135, 132, 127, 153, 161, 165, 164, 164, 144, 132, 117, 117, 97, 96, 93, 92, 94, 100, 98, 110, 134, 139, 138, 137, 136, 127, 124, 120, 116, 125, 113, 111, 122, 126, 121, 114, 111, 105, 111, 101, 104, 97, 90, 82, 83, 86, 93, 112, 110, 116, 137, 150, 138, 143, 137, 107, 89, 96, 89, 95, 97, 105, 104, 106, 108, 132, 136, 142, 144, 139, 127, 132, 118, 113, 111, 106, 91, 93, 95, 96, 109, 105, 107, 115, 117, 98, 96, 100, 90, 95, 97, 101, 97, 94, 94, 91, 96, 91, 102, 95},
{267, 316, 331, 407, 432, 474, 442, 432, 408, 384, 317, 314, 289, 221, 211, 227, 261, 253, 253, 264, 261, 248, 255, 271, 262, 245, 246, 243, 223, 264, 260, 289, 291, 304, 287, 296, 246, 251, 237, 208, 178, 167, 143, 144, 165, 169, 192, 227, 215, 210, 242, 257, 224, 240, 240, 208, 163, 164, 144, 151, 157, 154, 168, 168, 166, 185, 194, 217, 227, 229, 231, 238, 211, 199, 182, 184, 183, 179, 194, 205, 245, 254, 254, 252, 242, 172, 132, 146, 178, 193, 195, 195, 223, 206, 208, 214, 231, 195, 185, 181},
{62, 69, 69, 84, 89, 93, 91, 94, 86, 78, 68, 76, 73, 67, 71, 83, 77, 75, 80, 79, 72, 77, 76, 71, 71, 71, 58, 62, 66, 79, 75, 80, 80, 83, 69, 71, 69, 64, 57, 57, 55, 53, 55, 62, 64, 68, 74, 81, 73, 70, 65, 58, 51, 66, 66, 70, 75, 74, 62, 64, 67, 60, 61, 64, 60, 60, 61, 58, 57, 67, 67, 72, 75, 77, 69, 62, 59, 61, 56, 57, 57, 51, 48, 46, 47, 50, 50, 54, 70, 70, 69, 69, 66, 50, 48, 53, 53, 52, 61, 64},
{61, 60, 71, 75, 74, 74, 76, 65, 59, 60, 60, 67, 70, 78, 88, 86, 79, 87, 77, 74, 79, 80, 68, 86, 83, 81, 80, 85, 73, 72, 73, 81, 89, 87, 83, 79, 69, 60, 65, 66, 78, 81, 76, 69, 75, 64, 62, 62, 62, 60, 63, 67, 63, 66, 65, 62, 65, 71, 75, 73, 76, 68, 65, 66, 69, 72, 75, 76, 75, 79, 73, 73, 76, 72, 66, 64, 64, 60, 58, 54, 55, 58, 55, 57, 55, 58, 56, 58, 59, 65, 67, 71, 70, 67, 67, 74, 68, 67, 68, 68},
{317, 327, 381, 382, 350, 321, 323, 254, 271, 317, 295, 306, 331, 323, 291, 290, 267, 235, 243, 312, 374, 366, 361, 436, 407, 353, 386, 406, 331, 309, 313, 283, 244, 198, 192, 195, 194, 238, 257, 269, 314, 325, 314, 313, 322, 281, 288, 280, 274, 257, 255, 233, 237, 238, 253, 286, 335, 338, 339, 357, 344, 284, 277, 290, 236, 261, 276, 289, 280, 353, 314, 334, 312, 315, 294, 309, 301, 329, 319, 285, 270, 246, 214, 253, 251, 250, 254, 275, 248, 231, 239, 275, 257, 260, 331, 331, 298, 292, 285, 184},
{404, 386, 416, 397, 370, 304, 321, 309, 301, 333, 320, 329, 321, 309, 292, 302, 266, 245, 284, 365, 435, 473, 474, 544, 547, 493, 467, 468, 382, 304, 319, 329, 320, 328, 334, 328, 323, 349, 337, 303, 330, 333, 296, 284, 305, 281, 266, 272, 285, 312, 311, 308, 328, 297, 263, 265, 313, 315, 320, 332, 332, 276, 276, 284, 269, 350, 378, 375, 371, 390, 318, 321, 298, 294, 292, 298, 314, 348, 350, 354, 333, 300, 281, 337, 327, 330, 334, 341, 289, 275, 292, 306, 281, 306, 430, 433, 415, 431, 417, 279}}

// 33 Reading of the 8 sensors, 100 samples per sensor
{{102, 94, 96, 91, 89, 82, 74, 60, 63, 63, 53, 50, 48, 48, 48, 49, 70, 74, 74, 80, 80, 70, 77, 77, 67, 67, 62, 61, 62, 73, 75, 76, 72, 70, 64, 63, 59, 50, 63, 67, 66, 70, 73, 60, 49, 60, 56, 58, 66, 70, 62, 66, 61, 55, 57, 57, 55, 66, 76, 74, 80, 83, 79, 78, 82, 79, 76, 73, 62, 59, 60, 67, 67, 70, 66, 61, 52, 53, 53, 53, 65, 71, 88, 86, 86, 79, 70, 53, 54, 55, 54, 58, 57, 59, 58, 63, 61, 64, 62, 73},
