EMG data generated by the Myo Armband in response to different hand gestures used to control a prosthesis.
EMG data of the Myo Armband for the hand gesture that generates the open hand in the prosthesis.

// 1 Reading of the 8 sensors, 100 samples per sensor
{{112, 136, 149, 150, 167, 178, 161, 151, 162, 148, 138, 137, 137, 128, 119, 120, 112, 108, 100, 92, 82, 82, 86, 86, 84, 97, 105, 108, 110, 113, 105, 99, 88, 124, 133, 155, 155, 159, 135, 145, 125, 126, 119, 123, 102, 102, 97, 98, 96, 91, 83, 87, 85, 90, 88, 95, 92, 100, 89, 92, 85, 86, 77, 69, 66, 69, 69, 69, 75, 75, 81, 79, 90, 92, 93, 90, 90, 80, 73, 72, 70, 69, 64, 68, 61, 60, 58, 61, 64, 75, 71, 75, 83, 80, 75, 76, 75, 65, 69, 64},
{351, 429, 441, 433, 422, 458, 408, 391, 415, 376, 328, 298, 304, 284, 260, 263, 257, 249, 241, 246, 230, 243, 222, 213, 210, 265, 254, 278, 282, 283, 242, 248, 235, 285, 305, 307, 315, 317, 302, 304, 301, 294, 264, 259, 243, 241, 234, 249, 230, 210, 194, 200, 183, 187, 187, 210, 203, 221, 244, 251, 238, 239, 222, 166, 157, 179, 192, 195, 206, 203, 213, 205, 233, 239, 240, 228, 225, 216, 206, 219, 202, 188, 173, 173, 160, 159, 155, 150, 168, 186, 181, 178, 220, 209, 215, 227, 239, 207, 217, 198},
{1025, 1115, 1083, 1057, 1055, 1126, 1037, 975, 994, 935, 864, 835, 903, 869, 880, 837, 873, 857, 896, 862, 842, 822, 775, 706, 666, 804, 735, 734, 743, 828, 716, 731, 868, 878, 880, 894, 927, 773, 842, 758, 714, 780, 765, 785, 816, 860, 773, 776, 672, 656, 601, 582, 626, 630, 659, 772, 759, 740, 796, 778, 667, 683, 702, 652, 627, 772, 768, 769, 796, 783, 680, 689, 685, 680, 716, 689, 665, 703, 627, 652, 672, 673, 571, 579, 515, 421, 420, 490, 534, 550, 657, 656, 701, 696, 740, 695, 721, 663, 684, 614},
{947, 955, 823, 812, 762, 768, 795, 844, 827, 854, 888, 757, 843, 839, 838, 798, 868, 768, 792, 774, 735, 746, 790, 761, 800, 930, 921, 912, 934, 921, 818, 840, 880, 896, 890, 983, 948, 922, 873, 899, 837, 909, 934, 983, 953, 949, 872, 797, 754, 778, 708, 658, 630, 621, 608, 612, 640, 681, 732, 724, 717, 741, 730, 686, 664, 762, 719, 695, 677, 698, 593, 589, 627, 610, 598, 574, 570, 561, 587, 604, 646, 669, 657, 619, 561, 522, 557, 582, 603, 633, 653, 651, 610, 599, 599, 598, 593, 621, 597, 570},
{253, 306, 310, 328, 357, 365, 407, 425, 409, 414, 408, 335, 314, 340, 320, 341, 337, 345, 312, 310, 297, 318, 299, 306, 319, 339, 330, 334, 359, 325, 311, 332, 366, 403, 440, 435, 427, 435, 375, 372, 427, 462, 439, 439, 402, 366, 305, 280, 303, 318, 274, 321, 326, 323, 361, 388, 334, 348, 342, 289, 266, 280, 260, 234, 247, 244, 254, 265, 353, 348, 330, 335, 314, 217, 219, 277, 278, 333, 356, 358, 334, 320, 259, 231, 259, 241, 227, 230, 262, 226, 274, 266, 276, 277, 274, 220, 240, 244, 212, 234},
{96, 111, 121, 127, 141, 147, 145, 140, 136, 135, 129, 127, 128, 141, 129, 136, 126, 119, 100, 103, 95, 94, 91, 96, 90, 92, 110, 111, 109, 104, 95, 76, 87, 133, 152, 161, 171, 181, 148, 139, 135, 133, 113, 114, 104, 111, 100, 101, 115, 120, 115, 119, 115, 104, 107, 100, 86, 96, 94, 72, 73, 81, 75, 71, 82, 86, 88, 89, 107, 104, 98, 99, 97, 87, 95, 110, 109, 113, 113, 108, 98, 94, 86, 76, 73, 66, 62, 57, 70, 65, 79, 83, 87, 87, 86, 76, 82, 86, 81, 83},
{85, 94, 99, 100, 106, 109, 97, 90, 94, 88, 86, 91, 94, 98, 93, 97, 91, 84, 73, 74, 66, 63, 68, 75, 68, 78, 95, 95, 90, 93, 83, 65, 60, 88, 99, 107, 112, 120, 100, 96, 91, 91, 81, 84, 83, 83, 76, 75, 85, 82, 83, 83, 82, 75, 68, 63, 60, 69, 65, 63, 61, 68, 60, 54, 54, 55, 51, 50, 59, 63, 65, 66, 70, 73, 79, 77, 74, 70, 64, 52, 53, 55, 59, 61, 58, 59, 56, 48, 46, 49, 50, 58, 64, 65, 63, 61, 62, 59, 59, 58},
{76, 84, 85, 90, 100, 103, 90, 85, 92, 86, 86, 90, 92, 88, 84, 85, 83, 76, 67, 65, 59, 55, 62, 67, 61, 69, 82, 88, 85, 88, 82, 73, 80, 105, 146, 171, 171, 166, 152, 125, 94, 92, 96, 99, 99, 96, 96, 89, 92, 78, 77, 77, 91, 103, 102, 103, 103, 93, 76, 79, 72, 76, 68, 61, 48, 51, 47, 47, 57, 63, 66, 66, 72, 70, 71, 67, 67, 61, 55, 48, 47, 48, 49, 53, 53, 57, 54, 52, 51, 56, 52, 57, 63, 60, 53, 50, 47, 43, 47, 46}}

// 2 Reading of the 8 sensors, 100 samples per sensor
{{140, 121, 110, 112, 122, 128, 127, 131, 129, 123, 113, 114, 110, 99, 90, 90, 96, 90, 102, 97, 103, 106, 116, 111, 114, 113, 107, 98, 103, 102, 123, 121, 129, 123, 127, 107, 99, 90, 88, 83, 83, 93, 88, 93, 98, 100, 96, 96, 102, 94, 99, 100, 106, 97, 107, 95, 98, 102, 101, 93, 105, 104, 100, 101, 105, 99, 103, 110, 112, 110, 104, 99, 86, 84, 78, 78, 91, 92, 90, 99, 97, 77, 72, 81, 75, 80, 84, 88, 85, 84, 85, 86, 91, 88, 90, 86, 81, 70, 73, 78},
{316, 310, 263, 261, 316, 329, 326, 337, 349, 314, 288, 273, 262, 228, 232, 235, 239, 230, 256, 225, 249, 236, 251, 243, 248, 232, 242, 220, 220, 221, 261, 257, 275, 265, 265, 215, 217, 204, 216, 208, 243, 252, 242, 224, 235, 197, 177, 183, 207, 199, 246, 248, 252, 243, 245, 198, 195, 193, 184, 173, 210, 230, 236, 246, 269, 242, 270, 302, 303, 296, 295, 261, 223, 202, 180, 166, 174, 157, 169, 180, 202, 185, 200, 206, 210, 185, 201, 200, 192, 184, 201, 205, 193, 199, 199, 198, 176, 178, 158, 158},
{901, 924, 955, 924, 893, 899, 851, 864, 893, 954, 952, 970, 939, 898, 806, 734, 675, 659, 700, 740, 790, 814, 869, 899, 888, 900, 858, 791, 742, 786, 787, 813, 869, 867, 837, 807, 815, 777, 839, 808, 832, 831, 803, 721, 736, 724, 686, 747, 773, 749, 757, 783, 759, 715, 705, 652, 685, 659, 648, 667, 719, 696, 731, 777, 767, 783, 865, 881, 872, 913, 866, 790, 731, 673, 637, 585, 624, 644, 703, 680, 723, 663, 663, 612, 677, 661, 664, 681, 695, 635, 648, 706, 654, 756, 855, 839, 782, 805, 690, 585},
{807, 795, 820, 814, 783, 879, 865, 881, 888, 916, 858, 851, 777, 820, 831, 854, 905, 939, 919, 838, 886, 813, 858, 868, 882, 828, 858, 856, 828, 845, 808, 795, 823, 830, 879, 941, 936, 911, 887, 857, 771, 719, 746, 774, 771, 861, 875, 848, 887, 848, 814, 870, 862, 791, 807, 840, 806, 757, 765, 770, 674, 708, 667, 649, 653, 749, 740, 750, 855, 861, 771, 707, 735, 591, 585, 616, 661, 618, 677, 645, 665, 707, 724, 691, 745, 685, 592, 623, 641, 558, 591, 620, 624, 635, 681, 777, 762, 802, 830, 805},
{329, 357, 386, 422, 472, 481, 471, 460, 423, 392, 387, 358, 311, 313, 319, 317, 313, 382, 395, 370, 366, 372, 326, 345, 377, 374, 387, 394, 357, 328, 359, 313, 321, 354, 365, 382, 407, 395, 399, 436, 404, 391, 381, 364, 303, 290, 281, 273, 306, 287, 329, 343, 361, 347, 349, 353, 337, 351, 318, 362, 330, 331, 301, 308, 240, 252, 258, 263, 316, 338, 309, 305, 321, 264, 284, 321, 359, 337, 337, 300, 275, 215, 246, 250, 264, 286, 300, 267, 263, 261, 224, 206, 206, 261, 319, 339, 342, 382, 356, 357},
{127, 108, 108, 111, 116, 125, 115, 122, 123, 141, 133, 142, 135, 129, 98, 101, 107, 136, 141, 149, 148, 151, 132, 134, 135, 141, 127, 123, 120, 111, 122, 117, 119, 123, 128, 117, 119, 115, 114, 118, 114, 111, 115, 119, 106, 102, 105, 106, 112, 114, 128, 132, 129, 115, 114, 103, 102, 104, 101, 115, 114, 110, 106, 111, 91, 84, 78, 75, 97, 102, 101, 108, 113, 102, 100, 112, 128, 121, 114, 112, 104, 76, 84, 84, 84, 86, 87, 78, 82, 84, 77, 87, 88, 109, 124, 126, 121, 141, 122, 116},
{97, 88, 84, 79, 88, 88, 84, 93, 93, 95, 94, 104, 97, 92, 75, 80, 84, 90, 95, 102, 100, 103, 102, 101, 98, 101, 84, 83, 85, 81, 92, 92, 91, 90, 91, 76, 72, 71, 69, 75, 73, 75, 73, 83, 74, 77, 79, 88, 86, 90, 92, 94, 89, 80, 90, 86, 90, 92, 94, 86, 88, 80, 74, 75, 70, 65, 63, 61, 69, 69, 70, 73, 75, 79, 76, 81, 95, 92, 82, 88, 86, 69, 69, 69, 61, 58, 54, 51, 52, 54, 51, 59, 67, 83, 86, 87, 83, 87, 74, 75},
{93, 79, 78, 77, 85, 84, 80, 85, 82, 83, 83, 93, 88, 85, 71, 71, 77, 75, 81, 84, 87, 92, 97, 96, 95, 96, 80, 77, 82, 79, 90, 92, 93, 89, 92, 80, 73, 70, 67, 67, 60, 63, 59, 68, 66, 74, 74, 79, 78, 78, 78, 82, 80, 75, 82, 80, 81, 82, 84, 75, 76, 71, 65, 63, 63, 61, 60, 62, 68, 68, 63, 65, 64, 70, 66, 70, 84, 82, 71, 76, 74, 54, 53, 57, 51, 55, 56, 55, 52, 54, 49, 53, 60, 67, 69, 70, 67, 63, 61, 62}}

// 3 Reading of the 8 sensors, 100 samples per sensor
{{99, 96, 95, 95, 86, 90, 83, 81, 77, 75, 75, 78, 76, 80, 82, 73, 87, 88, 101, 101, 101, 87, 89, 84, 83, 86, 84, 92, 84, 92, 87, 93, 82, 78, 71, 80, 87, 95, 101, 98, 103, 96, 87, 96, 107, 96, 98, 103, 94, 97, 104, 113, 121, 117, 118, 124, 113, 110, 125, 132, 136, 138, 133, 124, 113, 98, 94, 95, 92, 83, 77, 79, 78, 83, 85, 92, 89, 99, 94, 92, 85, 87, 76, 72, 69, 67, 66, 65, 60, 64, 66, 64, 61, 63, 61, 60, 65, 74, 77, 81},
{411, 379, 335, 346, 327, 336, 333, 318, 299, 304, 280, 286, 295, 286, 248, 253, 323, 320, 363, 375, 375, 303, 294, 238, 212, 221, 245, 262, 254, 316, 329, 313, 288, 286, 257, 218, 249, 252, 276, 280, 291, 293, 302, 318, 341, 350, 340, 355, 372, 358, 349, 354, 359, 307, 292, 306, 290, 256, 267, 256, 259, 273, 269, 278, 272, 252, 256, 250, 251, 232, 246, 211, 263, 262, 267, 284, 295, 275, 274, 278, 265, 250, 228, 225, 215, 195, 192, 193, 187, 206, 222, 244, 270, 266, 279, 282, 274, 245, 243, 243},
{834, 826, 834, 845, 836, 835, 758, 746, 697, 794, 759, 773, 834, 828, 709, 750, 827, 760, 802, 807, 754, 683, 725, 775, 777, 805, 747, 708, 677, 722, 707, 733, 747, 716, 689, 665, 711, 670, 666, 669, 729, 711, 705, 728, 728, 746, 725, 856, 865, 949, 934, 1050, 1050, 1010, 1021, 1028, 971, 918, 976, 857, 868, 799, 797, 763, 817, 798, 806, 755, 768, 724, 743, 714, 733, 710, 772, 764, 809, 815, 824, 810, 839, 805, 793, 765, 721, 619, 583, 550, 661, 675, 654, 698, 699, 641, 651, 692, 684, 671, 629, 588},
{911, 804, 893, 918, 914, 918, 937, 925, 862, 878, 904, 959, 862, 880, 854, 805, 701, 680, 710, 683, 653, 675, 752, 735, 766, 742, 693, 626, 658, 755, 781, 825, 857, 848, 735, 801, 828, 812, 748, 749, 694, 640, 593, 616, 647, 636, 648, 759, 809, 925, 1036, 1089, 1121, 1085, 1057, 962, 947, 858, 839, 851, 982, 928, 938, 977, 896, 736, 766, 790, 743, 746, 742, 790, 729, 739, 695, 710, 665, 709, 722, 799, 787, 769, 715, 677, 588, 619, 644, 676, 674, 688, 671, 581, 559, 607, 600, 535, 540, 504, 565, 542},
{537, 518, 560, 503, 431, 444, 464, 383, 394, 369, 443, 439, 437, 455, 440, 378, 366, 353, 355, 393, 390, 406, 424, 404, 386, 378, 348, 344, 325, 317, 294, 284, 278, 342, 350, 414, 414, 403, 338, 330, 257, 292, 297, 339, 328, 365, 395, 395, 361, 379, 376, 405, 447, 468, 462, 437, 439, 400, 381, 386, 404, 317, 302, 293, 275, 252, 242, 275, 282, 278, 268, 281, 252, 257, 254, 254, 248, 249, 239, 247, 244, 249, 287, 276, 273, 253, 274, 244, 287, 276, 292, 263, 292, 250, 259, 256, 280, 233, 284, 288},
{162, 160, 169, 153, 137, 137, 133, 117, 120, 104, 134, 136, 135, 147, 143, 120, 115, 118, 105, 106, 97, 97, 95, 100, 107, 109, 108, 112, 109, 101, 100, 110, 104, 101, 113, 130, 119, 128, 129, 119, 106, 111, 100, 97, 97, 88, 117, 119, 115, 125, 136, 125, 127, 132, 125, 113, 107, 109, 114, 120, 134, 124, 117, 110, 108, 99, 96, 107, 103, 100, 90, 92, 84, 93, 99, 115, 113, 119, 113, 105, 87, 88, 88, 81, 81, 77, 83, 81, 86, 79, 82, 79, 79, 74, 76, 90, 89, 85, 105, 117},
{92, 92, 94, 85, 74, 72, 70, 65, 67, 62, 77, 75, 74, 83, 85, 75, 76, 84, 82, 79, 74, 71, 68, 65, 67, 65, 68, 70, 70, 71, 70, 76, 71, 69, 71, 81, 76, 84, 88, 83, 87, 87, 78, 76, 78, 62, 79, 85, 84, 90, 100, 95, 92, 90, 90, 83, 76, 84, 95, 107, 115, 114, 109, 104, 91, 83, 80, 86, 80, 78, 70, 74, 65, 75, 81, 97, 94, 104, 98, 92, 75, 79, 68, 63, 62, 60, 57, 58, 58, 57, 58, 59, 53, 54, 52, 63, 61, 65, 72, 78},
{70, 71, 75, 71, 63, 64, 60, 57, 57, 56, 67, 66, 63, 67, 69, 59, 62, 71, 75, 71, 67, 62, 59, 57, 63, 65, 65, 70, 71, 69, 69, 75, 67, 58, 61, 68, 69, 75, 80, 76, 80, 78, 71, 71, 77, 63, 70, 73, 73, 75, 85, 88, 89, 86, 88, 87, 78, 83, 95, 106, 111, 113, 107, 101, 88, 81, 79, 82, 78, 73, 62, 65, 59, 65, 69, 80, 77, 90, 87, 83, 74, 76, 63, 56, 56, 54, 50, 50, 51, 50, 50, 49, 41, 43, 42, 50, 49, 58, 62, 65}}

// 4 Reading of the 8 sensors, 100 samples per sensor
{{79, 74, 77, 85, 79, 81, 84, 92, 96, 100, 106, 107, 102, 95, 101, 97, 94, 89, 87, 72, 66, 70, 71, 66, 65, 62, 55, 62, 61, 65, 70, 70, 64, 67, 71, 73, 73, 70, 72, 62, 67, 68, 69, 69, 72, 63, 61, 57, 59, 57, 57, 54, 67, 61, 67, 66, 68, 67, 70, 64, 65, 63, 52, 47, 51, 46, 49, 47, 46, 44, 49, 50, 51, 50, 61, 64, 70, 72, 73, 64, 69, 61, 62, 63, 62, 48, 49, 43, 50, 61, 70, 74, 76, 80, 84, 76, 75, 77, 72, 57},
{246, 240, 245, 274, 248, 254, 259, 270, 235, 224, 241, 288, 285, 279, 287, 266, 205, 195, 195, 178, 180, 189, 180, 204, 214, 204, 188, 197, 161, 159, 167, 172, 167, 167, 178, 175, 175, 190, 198, 182, 214, 223, 202, 209, 214, 188, 180, 177, 168, 156, 164, 158, 208, 213, 217, 216, 210, 190, 194, 191, 190, 193, 173, 169, 187, 184, 181, 173, 159, 134, 137, 154, 163, 173, 202, 204, 212, 207, 192, 168, 194, 182, 180, 179, 191, 158, 168, 164, 174, 156, 202, 193, 197, 192, 209, 171, 165, 170, 202, 191},
{697, 736, 768, 880, 866, 840, 853, 789, 689, 645, 699, 734, 780, 755, 756, 710, 647, 586, 567, 531, 497, 474, 496, 591, 591, 625, 590, 590, 487, 489, 479, 497, 549, 604, 638, 672, 724, 700, 741, 712, 718, 692, 658, 600, 663, 636, 603, 614, 624, 568, 578, 559, 540, 503, 467, 414, 419, 452, 469, 484, 463, 470, 444, 480, 544, 546, 570, 604, 558, 508, 515, 485, 461, 461, 433, 474, 506, 523, 523, 565, 524, 488, 503, 481, 432, 402, 447, 397, 418, 460, 571, 590, 619, 601, 613, 543, 476, 429, 466, 419},
{646, 628, 679, 753, 769, 773, 856, 798, 785, 763, 828, 777, 889, 895, 917, 880, 856, 807, 741, 662, 610, 643, 552, 544, 582, 548, 496, 521, 515, 466, 503, 511, 655, 690, 690, 711, 698, 600, 578, 608, 552, 563, 481, 558, 528, 610, 600, 589, 529, 512, 420, 408, 414, 381, 375, 333, 326, 344, 299, 316, 357, 362, 355, 402, 388, 436, 487, 495, 477, 479, 431, 424, 444, 424, 411, 425, 407, 399, 410, 433, 412, 373, 345, 389, 362, 369, 380, 411, 384, 419, 461, 508, 471, 499, 475, 462, 419, 466, 454, 470},
{417, 385, 319, 315, 300, 300, 317, 358, 367, 361, 361, 360, 355, 356, 380, 370, 371, 357, 351, 326, 323, 347, 374, 361, 345, 337, 285, 235, 238, 222, 239, 259, 306, 290, 300, 297, 283, 225, 240, 230, 226, 254, 250, 300, 310, 306, 276, 266, 204, 171, 160, 151, 142, 129, 136, 139, 160, 160, 152, 154, 168, 158, 185, 220, 216, 272, 303, 296, 272, 283, 256, 225, 240, 238, 217, 216, 212, 193, 191, 208, 165, 165, 155, 164, 145, 133, 134, 154, 166, 168, 203, 206, 186, 176, 192, 190, 195, 241, 235, 222},
{107, 97, 84, 88, 84, 89, 99, 114, 123, 121, 117, 111, 105, 96, 107, 111, 116, 111, 115, 115, 107, 107, 113, 102, 94, 91, 83, 75, 73, 61, 74, 72, 84, 84, 85, 81, 79, 68, 78, 78, 79, 85, 81, 81, 87, 85, 81, 78, 84, 75, 71, 67, 68, 50, 49, 54, 62, 64, 63, 65, 63, 62, 63, 63, 62, 81, 88, 88, 86, 89, 76, 64, 78, 76, 73, 78, 82, 65, 66, 66, 53, 48, 57, 61, 60, 60, 58, 56, 56, 57, 64, 66, 64, 59, 80, 80, 83, 84, 84, 65},
{67, 67, 69, 71, 71, 67, 69, 72, 79, 83, 80, 73, 71, 64, 61, 67, 71, 73, 77, 76, 68, 67, 61, 51, 53, 51, 53, 68, 72, 67, 76, 73, 60, 60, 61, 59, 57, 57, 57, 57, 52, 55, 51, 48, 45, 44, 43, 42, 51, 54, 53, 50, 50, 40, 36, 38, 44, 50, 54, 55, 53, 51, 46, 40, 40, 50, 52, 54, 55, 53, 46, 41, 48, 47, 50, 54, 59, 53, 53, 52, 46, 39, 46, 49, 48, 48, 51, 45, 44, 52, 57, 53, 54, 58, 65, 62, 66, 68, 65, 51},
{59, 53, 56, 54, 53, 53, 61, 61, 75, 80, 81, 74, 72, 61, 56, 57, 59, 62, 67, 64, 58, 59, 55, 44, 48, 49, 44, 50, 49, 44, 48, 48, 41, 45, 49, 52, 52, 54, 57, 52, 51, 52, 50, 45, 45, 39, 39, 35, 45, 49, 51, 50, 52, 44, 42, 39, 39, 45, 45, 43, 44, 45, 36, 33, 32, 34, 37, 40, 41, 41, 41, 37, 40, 41, 43, 46, 50, 49, 48, 47, 45, 41, 41, 44, 45, 41, 41, 37, 40, 48, 54, 54, 54, 56, 60, 56, 58, 63, 61, 49}}

// 5 Reading of the 8 sensors, 100 samples per sensor
{{127, 139, 134, 138, 144, 143, 138, 122, 121, 111, 110, 117, 111, 118, 121, 120, 107, 111, 99, 98, 88, 99, 107, 116, 122, 122, 116, 102, 102, 91, 99, 89, 90, 73, 80, 72, 77, 80, 96, 97, 97, 101, 99, 88, 103, 112, 118, 120, 121, 104, 91, 85, 79, 97, 100, 109, 109, 110, 93, 101, 90, 93, 92, 95, 79, 81, 76, 76, 76, 92, 93, 94, 97, 95, 96, 97, 91, 88, 96, 87, 86, 84, 89, 79, 74, 66, 71, 64, 61, 63, 65, 60, 57, 53, 56, 59, 60, 63, 63, 60},
{298, 334, 344, 359, 391, 469, 491, 520, 517, 486, 410, 407, 336, 364, 388, 403, 356, 364, 323, 302, 289, 325, 368, 443, 443, 432, 416, 382, 300, 276, 271, 243, 218, 218, 229, 221, 211, 234, 238, 238, 251, 288, 299, 347, 394, 415, 433, 443, 412, 403, 411, 372, 401, 425, 395, 392, 400, 340, 300, 323, 275, 300, 299, 301, 258, 300, 288, 287, 311, 349, 353, 344, 352, 353, 345, 355, 384, 399, 378, 375, 336, 298, 288, 317, 287, 292, 280, 283, 266, 277, 275, 309, 302, 280, 289, 297, 272, 262, 276, 262},
{910, 938, 998, 1131, 1112, 1153, 1156, 1106, 1011, 944, 831, 779, 770, 726, 746, 833, 853, 793, 784, 764, 720, 789, 906, 909, 915, 928, 836, 738, 781, 738, 698, 665, 698, 711, 788, 797, 804, 837, 786, 790, 745, 743, 685, 700, 627, 691, 825, 834, 820, 835, 826, 746, 781, 806, 808, 840, 785, 721, 722, 702, 641, 647, 728, 714, 692, 775, 850, 829, 861, 1007, 1008, 958, 974, 981, 863, 850, 883, 824, 768, 744, 691, 645, 631, 688, 699, 680, 722, 720, 638, 677, 673, 712, 708, 736, 683, 736, 608, 671, 667, 644},
{917, 896, 899, 982, 1068, 1074, 1093, 1091, 1174, 1107, 1134, 1173, 1130, 945, 1002, 980, 941, 966, 1037, 969, 947, 1013, 991, 1000, 1004, 1010, 933, 917, 869, 897, 883, 827, 840, 791, 721, 734, 703, 718, 727, 697, 646, 655, 664, 676, 685, 773, 908, 922, 906, 935, 871, 857, 847, 929, 943, 937, 870, 788, 705, 646, 687, 642, 719, 719, 745, 683, 749, 745, 747, 827, 838, 796, 760, 763, 714, 725, 770, 772, 791, 709, 673, 677, 634, 559, 620, 615, 540, 524, 622, 612, 627, 625, 672, 616, 597, 598, 612, 581, 580, 596},
{668, 699, 714, 755, 791, 718, 721, 729, 719, 683, 662, 644, 573, 477, 495, 459, 531, 517, 531, 503, 537, 429, 501, 481, 519, 481, 498, 413, 402, 328, 391, 382, 441, 441, 466, 473, 469, 445, 444, 491, 427, 427, 401, 405, 335, 394, 469, 566, 578, 567, 577, 571, 549, 535, 552, 526, 513, 437, 473, 521, 510, 451, 451, 435, 416, 414, 453, 495, 530, 533, 555, 606, 645, 603, 573, 552, 508, 410, 426, 424, 448, 465, 483, 481, 462, 409, 337, 292, 306, 343, 332, 333, 350, 351, 308, 320, 341, 357, 352, 360},
{220, 243, 254, 271, 289, 250, 230, 221, 204, 172, 167, 174, 164, 146, 153, 145, 171, 167, 163, 158, 178, 143, 162, 171, 190, 179, 182, 163, 165, 137, 148, 147, 156, 143, 148, 154, 159, 152, 156, 166, 153, 149, 139, 144, 137, 138, 183, 210, 205, 198, 210, 175, 154, 154, 151, 131, 143, 130, 139, 161, 159, 137, 137, 142, 129, 138, 149, 166, 168, 188, 182, 198, 207, 199, 177, 178, 160, 132, 140, 140, 150, 160, 162, 152, 146, 133, 117, 109, 107, 118, 111, 93, 102, 107, 99, 106, 116, 120, 127, 123},
{120, 130, 136, 144, 146, 130, 118, 100, 100, 87, 82, 91, 96, 88, 89, 83, 82, 88, 86, 88, 91, 93, 91, 94, 105, 110, 109, 109, 115, 103, 107, 104, 100, 87, 87, 84, 92, 86, 91, 95, 91, 91, 89, 93, 98, 96, 101, 105, 97, 88, 90, 82, 81, 87, 83, 82, 91, 90, 89, 97, 97, 83, 84, 84, 76, 77, 79, 85, 83, 101, 95, 99, 104, 105, 96, 100, 93, 81, 87, 82, 87, 92, 90, 82, 77, 67, 69, 71, 66, 67, 65, 50, 52, 55, 55, 63, 66, 64, 72, 70},
{99, 110, 111, 116, 115, 104, 94, 82, 84, 75, 80, 84, 85, 78, 79, 71, 68, 74, 73, 75, 75, 81, 79, 79, 82, 84, 82, 82, 89, 83, 87, 83, 79, 68, 74, 68, 75, 72, 78, 75, 75, 75, 75, 72, 81, 84, 83, 85, 83, 75, 71, 72, 71, 76, 73, 74, 79, 79, 72, 79, 77, 68, 69, 71, 62, 61, 57, 64, 62, 74, 71, 71, 68, 79, 74, 77, 77, 74, 76, 72, 73, 73, 72, 59, 54, 47, 51, 52, 50, 51, 51, 41, 42, 41, 41, 47, 52, 48, 50, 50}}

// 6 Reading of the 8 sensors, 100 samples per sensor
{{86, 89, 85, 82, 81, 92, 85, 87, 90, 88, 78, 82, 79, 75, 64, 64, 59, 58, 56, 55, 59, 58, 66, 66, 74, 69, 72, 71, 82, 84, 85, 87, 90, 84, 75, 74, 76, 68, 63, 64, 67, 56, 55, 53, 55, 61, 64, 68, 65, 74, 66, 69, 70, 74, 67, 65, 60, 60, 58, 55, 59, 65, 59, 87, 95, 97, 92, 95, 75, 64, 56, 56, 56, 49, 56, 59, 65, 63, 66, 60, 71, 71, 76, 74, 75, 64, 66, 65, 68, 67, 70, 62, 64, 67, 67, 77, 79, 75, 69, 69},
{258, 257, 249, 219, 246, 252, 270, 278, 264, 230, 235, 233, 228, 228, 217, 210, 195, 195, 182, 175, 165, 181, 181, 204, 226, 226, 209, 201, 178, 161, 186, 183, 198, 233, 229, 210, 222, 210, 176, 171, 179, 158, 172, 178, 185, 217, 225, 215, 208, 215, 177, 176, 177, 173, 182, 177, 182, 185, 204, 194, 199, 211, 219, 289, 313, 329, 318, 315, 268, 228, 206, 226, 247, 216, 223, 228, 207, 166, 163, 155, 142, 142, 161, 178, 192, 185, 201, 229, 230, 215, 253, 236, 218, 218, 230, 222, 242, 223, 212, 200},
{700, 638, 674, 614, 616, 665, 705, 683, 688, 690, 654, 626, 640, 608, 566, 532, 585, 504, 505, 526, 577, 506, 569, 561, 537, 512, 514, 507, 533, 585, 626, 635, 606, 654, 618, 573, 547, 544, 443, 512, 564, 610, 662, 670, 640, 581, 580, 530, 588, 594, 602, 603, 575, 540, 514, 498, 516, 507, 537, 604, 643, 580, 630, 633, 681, 716, 755, 774, 778, 680, 601, 552, 516, 460, 480, 464, 466, 429, 424, 400, 430, 470, 543, 539, 566, 580, 579, 624, 655, 643, 668, 651, 584, 551, 572, 530, 520, 509, 552, 530},
{973, 989, 943, 848, 871, 785, 758, 724, 625, 575, 709, 711, 730, 797, 810, 748, 791, 764, 691, 661, 694, 731, 762, 788, 764, 686, 605, 583, 663, 649, 697, 734, 694, 650, 649, 660, 594, 646, 573, 565, 479, 483, 492, 528, 515, 495, 516, 464, 471, 535, 581, 550, 612, 591, 550, 516, 523, 436, 484, 516, 545, 533, 603, 638, 622, 601, 646, 597, 525, 509, 499, 437, 466, 463, 445, 436, 425, 396, 423, 448, 512, 565, 606, 582, 577, 536, 541, 580, 570, 593, 636, 592, 570, 583, 678, 654, 653, 695, 769, 693},
{426, 419, 421, 401, 418, 342, 334, 320, 304, 267, 279, 278, 302, 323, 375, 373, 412, 396, 379, 351, 331, 273, 264, 245, 234, 241, 252, 263, 264, 221, 251, 260, 238, 269, 315, 314, 322, 351, 327, 306, 278, 265, 297, 312, 293, 325, 307, 236, 223, 254, 230, 243, 269, 289, 265, 270, 271, 247, 231, 252, 245, 241, 250, 256, 249, 241, 233, 236, 222, 230, 227, 222, 246, 245, 230, 228, 235, 214, 244, 254, 268, 264, 256, 223, 206, 183, 224, 257, 266, 287, 304, 294, 306, 299, 359, 354, 343, 338, 366, 297},
{156, 146, 152, 134, 133, 113, 107, 97, 102, 97, 92, 97, 102, 102, 118, 120, 126, 122, 111, 105, 98, 84, 81, 82, 86, 84, 90, 94, 102, 89, 95, 98, 96, 87, 90, 96, 98, 107, 108, 113, 105, 104, 103, 107, 98, 107, 99, 90, 86, 92, 79, 84, 86, 83, 74, 80, 79, 75, 74, 75, 67, 66, 70, 78, 81, 81, 74, 69, 61, 59, 57, 62, 71, 70, 73, 73, 71, 70, 78, 77, 80, 85, 81, 72, 66, 68, 69, 80, 83, 88, 92, 90, 95, 97, 122, 116, 114, 110, 113, 83},
{92, 87, 86, 70, 69, 74, 70, 72, 76, 74, 64, 67, 65, 64, 73, 72, 73, 72, 65, 57, 56, 54, 55, 62, 65, 62, 65, 68, 73, 73, 76, 74, 75, 64, 59, 61, 64, 62, 65, 69, 71, 69, 71, 69, 64, 64, 61, 57, 55, 63, 60, 67, 66, 64, 59, 56, 49, 54, 61, 58, 57, 61, 57, 61, 65, 63, 59, 58, 50, 49, 52, 53, 56, 52, 55, 52, 49, 50, 57, 53, 59, 66, 65, 64, 63, 59, 51, 56, 58, 59, 63, 61, 57, 57, 71, 69, 68, 72, 73, 60},
{68, 68, 67, 58, 60, 70, 67, 66, 71, 69, 58, 59, 60, 57, 57, 55, 56, 55, 53, 48, 54, 53, 55, 58, 62, 57, 59, 58, 72, 73, 74, 73, 76, 58, 51, 52, 56, 51, 54, 58, 56, 50, 50, 49, 49, 51, 53, 53, 51, 54, 53, 59, 58, 57, 54, 51, 45, 45, 53, 50, 51, 57, 56, 61, 62, 60, 52, 51, 40, 37, 39, 38, 40, 36, 44, 44, 48, 48, 55, 50, 55, 56, 56, 55, 53, 47, 45, 49, 51, 52, 56, 52, 54, 62, 70, 73, 73, 75, 67, 60}}

// 7 Reading of the 8 sensors, 100 samples per sensor
{{128, 122, 120, 100, 96, 95, 92, 82, 70, 78, 84, 80, 85, 95, 97, 99, 109, 109, 105, 102, 108, 97, 93, 88, 88, 81, 82, 93, 99, 97, 89, 88, 79, 84, 91, 91, 100, 96, 95, 89, 88, 77, 74, 68, 69, 66, 65, 78, 77, 70, 75, 90, 84, 81, 85, 81, 62, 61, 66, 68, 69, 74, 74, 73, 70, 74, 82, 86, 86, 95, 92, 83, 83, 94, 88, 88, 85, 84, 67, 64, 70, 71, 70, 74, 75, 67, 70, 70, 69, 71, 68, 63, 63, 65, 57, 65, 66, 67, 67, 70},
{322, 342, 348, 360, 363, 368, 357, 322, 293, 300, 293, 235, 256, 251, 255, 262, 304, 310, 310, 317, 311, 269, 266, 267, 264, 304, 299, 281, 303, 305, 266, 297, 319, 302, 346, 345, 327, 311, 325, 272, 287, 276, 262, 247, 245, 210, 205, 311, 303, 285, 299, 353, 289, 289, 305, 297, 219, 198, 182, 211, 215, 258, 269, 289, 254, 271, 272, 265, 265, 300, 274, 241, 275, 312, 279, 308, 311, 307, 264, 266, 236, 234, 221, 239, 253, 253, 254, 243, 224, 204, 213, 204, 195, 221, 249, 236, 239, 259, 270, 297},
{868, 784, 809, 799, 762, 701, 653, 595, 643, 685, 698, 702, 667, 636, 715, 758, 794, 781, 764, 654, 597, 573, 677, 677, 704, 750, 692, 667, 732, 758, 692, 701, 664, 630, 688, 728, 757, 755, 763, 657, 614, 544, 560, 532, 578, 636, 638, 662, 677, 650, 594, 615, 537, 524, 543, 535, 506, 513, 515, 496, 507, 543, 561, 517, 501, 550, 610, 591, 650, 700, 696, 610, 672, 667, 634, 657, 673, 632, 602, 642, 612, 610, 603, 556, 471, 479, 519, 501, 556, 588, 572, 532, 539, 538, 536, 524, 560, 575, 671, 663},
{888, 843, 884, 864, 862, 870, 891, 812, 797, 790, 775, 776, 687, 731, 775, 822, 891, 880, 842, 761, 733, 675, 739, 767, 795, 737, 683, 611, 593, 634, 690, 689, 731, 724, 675, 672, 689, 655, 635, 585, 540, 497, 492, 598, 663, 718, 744, 771, 683, 758, 701, 728, 695, 695, 577, 570, 516, 536, 630, 623, 669, 752, 763, 715, 744, 703, 630, 579, 548, 541, 540, 530, 585, 653, 686, 691, 709, 754, 692, 670, 671, 630, 614, 678, 668, 673, 677, 615, 564, 535, 542, 539, 549, 561, 569, 597, 586, 577, 596, 619},
{539, 512, 460, 444, 440, 364, 374, 381, 398, 442, 475, 454, 411, 384, 342, 359, 417, 421, 403, 401, 372, 306, 339, 371, 362, 330, 318, 322, 287, 314, 322, 353, 368, 364, 330, 363, 330, 282, 344, 339, 325, 352, 340, 363, 391, 370, 454, 457, 392, 417, 435, 340, 340, 371, 341, 311, 321, 332, 326, 303, 313, 301, 332, 313, 294, 297, 303, 246, 252, 265, 272, 263, 305, 320, 325, 304, 324, 338, 317, 314, 357, 353, 356, 367, 387, 384, 361, 359, 389, 366, 349, 348, 299, 266, 254, 249, 245, 263, 252, 266},
{178, 163, 136, 141, 146, 120, 129, 144, 140, 145, 155, 149, 137, 134, 163, 167, 185, 185, 180, 152, 149, 125, 137, 139, 127, 117, 112, 103, 94, 103, 100, 101, 104, 118, 105, 115, 111, 99, 97, 99, 92, 96, 94, 105, 110, 114, 144, 150, 134, 140, 146, 116, 110, 122, 118, 104, 105, 111, 102, 94, 93, 90, 94, 93, 84, 86, 91, 82, 82, 90, 99, 94, 99, 102, 108, 98, 102, 105, 98, 94, 113, 117, 130, 132, 130, 120, 111, 86, 88, 87, 82, 79, 78, 83, 78, 70, 73, 80, 68, 72},
{97, 90, 82, 85, 89, 81, 84, 91, 80, 89, 98, 99, 95, 100, 134, 137, 146, 146, 142, 108, 105, 91, 93, 93, 86, 77, 74, 77, 74, 75, 72, 69, 58, 77, 71, 74, 87, 89, 74, 81, 80, 68, 63, 65, 67, 70, 78, 84, 79, 76, 77, 67, 61, 70, 73, 68, 66, 71, 69, 65, 70, 72, 68, 68, 64, 57, 62, 64, 65, 71, 75, 70, 67, 69, 71, 68, 67, 75, 71, 68, 82, 89, 95, 93, 88, 76, 71, 52, 49, 55, 55, 48, 52, 55, 49, 47, 53, 54, 53, 52},
{83, 76, 72, 70, 71, 67, 70, 71, 59, 67, 78, 79, 79, 86, 89, 82, 87, 85, 80, 73, 82, 72, 74, 73, 72, 64, 66, 72, 71, 70, 68, 65, 54, 70, 65, 66, 83, 86, 78, 82, 81, 67, 62, 58, 55, 53, 54, 57, 58, 56, 60, 61, 59, 60, 62, 58, 53, 60, 61, 61, 62, 65, 58, 57, 52, 51, 55, 59, 57, 64, 65, 60, 59, 63, 62, 59, 59, 60, 53, 52, 64, 64, 70, 71, 67, 57, 59, 48, 49, 54, 55, 49, 52, 51, 46, 44, 47, 44, 45, 45}}

// 8 Reading of the 8 sensors, 100 samples per sensor
{{137, 161, 165, 182, 198, 209, 200, 200, 203, 188, 177, 168, 163, 131, 118, 118, 121, 109, 128, 145, 145, 152, 170, 160, 143, 142, 129, 101, 100, 99, 100, 106, 110, 118, 114, 113, 131, 126, 116, 117, 124, 104, 107, 111, 129, 125, 133, 129, 128, 107, 104, 95, 98, 97, 99, 95, 98, 106, 116, 115, 117, 114, 109, 106, 105, 105, 101, 103, 86, 89, 90, 99, 111, 113, 112, 113, 105, 93, 96, 103, 97, 103, 101, 97, 81, 93, 95, 106, 110, 126, 124, 115, 111, 108, 89, 81, 86, 90, 86, 89},
{359, 412, 431, 442, 505, 569, 552, 539, 537, 501, 441, 416, 400, 362, 326, 307, 330, 327, 357, 375, 377, 391, 432, 410, 383, 372, 331, 257, 255, 241, 236, 279, 292, 338, 377, 387, 393, 386, 352, 349, 368, 363, 374, 380, 370, 386, 372, 368, 363, 338, 287, 271, 266, 265, 263, 268, 265, 264, 305, 314, 325, 329, 322, 309, 301, 288, 292, 293, 241, 262, 266, 277, 297, 349, 332, 326, 317, 289, 285, 287, 279, 306, 350, 317, 313, 349, 375, 361, 374, 383, 363, 324, 306, 279, 265, 266, 252, 269, 304, 309},
{826, 848, 882, 856, 845, 929, 903, 935, 1012, 1055, 1066, 1056, 979, 944, 882, 797, 791, 841, 824, 907, 957, 1015, 1046, 987, 911, 866, 803, 773, 830, 832, 764, 784, 740, 728, 800, 865, 867, 853, 867, 812, 809, 841, 836, 883, 894, 914, 843, 864, 779, 715, 649, 701, 725, 756, 812, 856, 819, 753, 775, 759, 742, 856, 938, 915, 890, 860, 780, 694, 717, 766, 780, 732, 772, 751, 664, 662, 760, 695, 676, 727, 699, 647, 707, 741, 738, 760, 736, 701, 662, 653, 619, 638, 624, 639, 641, 645, 603, 663, 669, 705},
{988, 899, 966, 993, 924, 882, 928, 894, 923, 942, 968, 890, 884, 879, 888, 824, 846, 765, 738, 800, 915, 941, 1018, 1081, 1060, 1030, 976, 947, 873, 820, 737, 731, 782, 752, 813, 817, 866, 809, 812, 772, 738, 670, 658, 671, 645, 668, 670, 614, 578, 587, 579, 607, 634, 660, 666, 702, 720, 722, 698, 643, 633, 609, 614, 611, 636, 610, 588, 565, 564, 583, 583, 570, 606, 618, 595, 670, 676, 616, 617, 665, 642, 655, 665, 638, 633, 587, 596, 635, 668, 652, 624, 582, 513, 459, 458, 479, 520, 560, 613, 621},
{337, 354, 373, 381, 368, 389, 382, 419, 435, 421, 382, 357, 336, 338, 386, 390, 391, 365, 335, 315, 295, 309, 304, 334, 291, 304, 317, 317, 356, 417, 423, 415, 410, 359, 287, 307, 318, 322, 306, 343, 319, 315, 338, 337, 306, 283, 252, 293, 271, 266, 268, 281, 186, 197, 210, 254, 254, 303, 314, 349, 347, 338, 300, 301, 257, 212, 220, 223, 211, 203, 212, 220, 222, 239, 230, 276, 265, 271, 244, 251, 209, 205, 219, 219, 242, 240, 249, 242, 256, 274, 256, 251, 240, 226, 196, 199, 202, 195, 213, 205},
{97, 118, 120, 122, 122, 145, 131, 143, 147, 148, 129, 126, 120, 116, 128, 133, 140, 138, 135, 147, 141, 134, 133, 136, 111, 114, 115, 108, 112, 130, 140, 142, 140, 142, 121, 117, 136, 140, 135, 137, 129, 108, 107, 100, 104, 103, 97, 105, 106, 101, 97, 103, 90, 94, 87, 92, 89, 107, 124, 138, 142, 138, 127, 110, 94, 79, 84, 78, 76, 77, 86, 88, 93, 99, 95, 100, 95, 102, 93, 98, 95, 93, 85, 83, 76, 72, 82, 100, 109, 128, 131, 123, 106, 98, 74, 69, 71, 67, 64, 64},
{92, 105, 104, 105, 102, 108, 98, 106, 113, 113, 110, 107, 102, 87, 85, 90, 97, 93, 96, 108, 105, 101, 107, 106, 90, 91, 89, 77, 78, 86, 94, 98, 97, 100, 93, 83, 98, 101, 97, 96, 96, 82, 78, 80, 88, 88, 87, 86, 86, 79, 76, 77, 77, 76, 69, 68, 68, 77, 87, 96, 101, 99, 98, 90, 83, 74, 73, 71, 68, 73, 79, 81, 83, 84, 78, 77, 72, 79, 77, 81, 81, 84, 71, 72, 66, 65, 70, 87, 97, 115, 121, 116, 106, 96, 77, 66, 69, 65, 62, 62},
{94, 106, 107, 114, 116, 122, 115, 120, 123, 118, 113, 108, 100, 79, 75, 80, 86, 79, 89, 100, 97, 98, 110, 106, 94, 95, 90, 76, 77, 83, 87, 87, 84, 85, 77, 69, 83, 84, 78, 80, 83, 70, 72, 76, 92, 90, 95, 92, 90, 75, 72, 70, 72, 72, 69, 68, 70, 75, 80, 83, 85, 82, 82, 81, 77, 73, 71, 70, 61, 74, 78, 79, 81, 82, 68, 71, 67, 67, 68, 74, 68, 76, 71, 70, 70, 71, 68, 82, 90, 104, 111, 108, 99, 92, 72, 58, 62, 64, 62, 61}}

// 9 Reading of the 8 sensors, 100 samples per sensor
{{28, 29, 27, 29, 44, 54, 73, 97, 118, 125, 130, 130, 134, 132, 150, 152, 162, 149, 162, 147, 165, 154, 166, 150, 145, 120, 125, 120, 121, 124, 119, 113, 103, 95, 106, 128, 133, 132, 128, 111, 90, 83, 84, 87, 90, 83, 81, 94, 101, 116, 131, 141, 131, 128, 116, 110, 104, 107, 116, 118, 114, 108, 112, 97, 89, 85, 84, 71, 68, 70, 81, 76, 94, 103, 101, 90, 99, 89, 80, 85, 89, 75, 70, 70, 71, 66, 68, 66, 67, 53, 49, 57, 62, 70, 73, 73, 73, 72, 67, 68},
{71, 70, 83, 92, 151, 183, 211, 245, 325, 341, 343, 349, 356, 371, 416, 437, 468, 459, 451, 436, 461, 450, 469, 422, 402, 348, 341, 334, 359, 390, 436, 444, 425, 423, 373, 344, 383, 379, 356, 353, 326, 272, 297, 290, 288, 340, 324, 310, 323, 334, 312, 293, 296, 294, 292, 258, 262, 276, 324, 312, 302, 315, 303, 238, 252, 256, 280, 272, 274, 272, 291, 234, 254, 280, 257, 231, 238, 205, 196, 217, 262, 262, 260, 260, 248, 194, 187, 203, 198, 196, 198, 218, 212, 182, 185, 184, 178, 179, 196, 196},
{220, 236, 225, 285, 533, 659, 801, 943, 1093, 1066, 1117, 1089, 1039, 922, 953, 874, 893, 868, 876, 846, 873, 866, 918, 944, 952, 928, 920, 917, 909, 949, 985, 985, 901, 857, 770, 773, 772, 871, 865, 850, 786, 773, 687, 724, 752, 750, 690, 661, 617, 578, 639, 642, 664, 633, 661, 582, 654, 759, 830, 816, 807, 828, 745, 664, 627, 643, 567, 540, 534, 585, 616, 586, 598, 664, 662, 628, 641, 629, 556, 535, 531, 492, 489, 481, 529, 515, 572, 633, 725, 694, 670, 653, 619, 528, 537, 564, 540, 493, 555, 581},
{98, 101, 140, 228, 417, 530, 700, 865, 909, 959, 1012, 963, 962, 969, 942, 921, 893, 805, 793, 773, 709, 758, 731, 730, 780, 881, 876, 952, 969, 1019, 1022, 1066, 1009, 998, 883, 845, 774, 812, 828, 814, 807, 801, 741, 718, 717, 634, 612, 601, 655, 667, 695, 762, 802, 749, 815, 835, 811, 800, 798, 782, 734, 774, 779, 740, 643, 598, 497, 413, 427, 442, 541, 520, 567, 560, 575, 603, 638, 603, 617, 603, 497, 442, 435, 412, 429, 461, 484, 474, 506, 519, 492, 450, 552, 582, 544, 543, 582, 516, 494, 509},
{60, 60, 105, 128, 147, 189, 309, 408, 460, 543, 548, 508, 472, 416, 344, 345, 377, 329, 378, 376, 376, 336, 382, 361, 386, 389, 415, 415, 432, 437, 431, 435, 396, 376, 356, 362, 323, 323, 324, 308, 341, 338, 374, 359, 382, 346, 357, 313, 313, 237, 228, 203, 281, 281, 311, 322, 331, 287, 336, 363, 360, 347, 341, 290, 213, 176, 173, 174, 173, 173, 195, 201, 192, 177, 175, 150, 173, 156, 174, 178, 190, 224, 222, 215, 210, 207, 149, 148, 152, 167, 173, 170, 201, 218, 227, 219, 241, 237, 226, 225},
{43, 46, 47, 50, 52, 57, 70, 125, 136, 151, 161, 165, 153, 144, 141, 134, 142, 119, 138, 133, 139, 123, 152, 144, 148, 142, 153, 125, 122, 122, 131, 123, 118, 118, 133, 129, 128, 134, 135, 114, 119, 116, 114, 114, 126, 113, 118, 117, 115, 100, 103, 97, 113, 108, 109, 109, 117, 100, 110, 129, 132, 124, 130, 120, 93, 82, 83, 73, 74, 68, 80, 80, 87, 83, 84, 74, 75, 62, 62, 66, 59, 67, 66, 68, 69, 69, 58, 56, 58, 63, 68, 63, 69, 70, 67, 66, 88, 88, 87, 89},
{32, 31, 25, 29, 45, 48, 54, 87, 94, 96, 102, 105, 106, 105, 109, 109, 117, 97, 107, 102, 116, 105, 124, 120, 118, 103, 108, 89, 91, 92, 98, 93, 90, 79, 94, 104, 106, 109, 111, 96, 82, 81, 79, 84, 90, 81, 81, 84, 85, 90, 97, 101, 99, 93, 83, 83, 82, 76, 83, 96, 97, 94, 102, 94, 76, 65, 62, 50, 51, 53, 64, 71, 83, 84, 84, 78, 78, 65, 60, 61, 57, 51, 51, 53, 56, 53, 56, 53, 53, 49, 53, 43, 47, 52, 52, 51, 67, 70, 70, 73},
{24, 24, 23, 26, 43, 46, 57, 77, 84, 85, 91, 91, 97, 95, 102, 101, 107, 91, 99, 94, 111, 105, 116, 113, 109, 91, 93, 82, 84, 87, 86, 84, 79, 72, 84, 97, 100, 100, 97, 83, 67, 65, 70, 76, 82, 76, 76, 77, 79, 95, 109, 135, 145, 148, 139, 132, 108, 94, 90, 94, 94, 92, 89, 83, 71, 66, 61, 51, 49, 55, 59, 62, 74, 74, 74, 71, 76, 66, 70, 69, 69, 61, 60, 51, 48, 46, 50, 48, 49, 43, 42, 42, 48, 56, 56, 56, 61, 63, 59, 63}}

// 10 Reading of the 8 sensors, 100 samples per sensor
{{113, 114, 122, 112, 116, 125, 142, 130, 139, 138, 122, 117, 117, 113, 105, 107, 89, 84, 87, 82, 76, 77, 87, 80, 84, 88, 88, 81, 75, 73, 70, 67, 80, 86, 87, 93, 93, 83, 81, 82, 73, 75, 80, 88, 92, 94, 99, 91, 80, 79, 75, 73, 79, 82, 89, 91, 93, 87, 96, 88, 85, 78, 80, 65, 59, 65, 69, 68, 70, 71, 69, 67, 69, 76, 84, 81, 86, 84, 81, 69, 71, 61, 59, 55, 53, 52, 52, 63, 64, 63, 65, 75, 63, 64, 76, 77, 67, 67, 61, 58},
{311, 306, 323, 315, 323, 316, 335, 339, 348, 353, 328, 332, 315, 342, 367, 378, 365, 390, 366, 307, 289, 287, 266, 282, 302, 322, 331, 310, 282, 291, 272, 243, 298, 323, 336, 338, 339, 307, 273, 229, 222, 222, 200, 211, 264, 255, 253, 245, 244, 209, 209, 199, 206, 198, 174, 183, 191, 227, 276, 291, 291, 295, 270, 240, 228, 230, 234, 263, 237, 234, 235, 230, 212, 234, 239, 244, 251, 239, 217, 192, 181, 168, 165, 158, 169, 157, 145, 163, 161, 153, 157, 203, 183, 191, 211, 203, 159, 163, 177, 163},
{798, 809, 888, 874, 864, 891, 899, 832, 821, 853, 855, 918, 857, 953, 993, 1007, 983, 995, 917, 837, 780, 740, 813, 755, 803, 789, 768, 691, 729, 698, 658, 665, 776, 812, 821, 856, 854, 761, 722, 727, 779, 828, 859, 925, 914, 936, 909, 866, 808, 788, 706, 669, 684, 646, 642, 681, 677, 656, 716, 781, 751, 739, 743, 671, 571, 523, 600, 608, 613, 704, 784, 770, 828, 810, 746, 665, 594, 466, 515, 477, 505, 533, 514, 509, 514, 469, 466, 557, 502, 491, 495, 536, 484, 490, 515, 533, 483, 488, 492, 483},
{849, 864, 813, 803, 755, 812, 803, 853, 835, 819, 813, 776, 763, 716, 841, 847, 837, 800, 822, 712, 681, 695, 693, 656, 737, 753, 735, 787, 798, 699, 680, 783, 797, 841, 887, 872, 776, 688, 694, 672, 817, 861, 891, 911, 927, 901, 919, 909, 855, 813, 723, 653, 678, 644, 678, 646, 742, 717, 770, 802, 802, 730, 748, 754, 698, 724, 711, 722, 727, 778, 797, 806, 789, 760, 696, 698, 697, 695, 662, 648, 616, 602, 561, 605, 580, 572, 575, 603, 537, 521, 503, 537, 488, 505, 697, 705, 681, 726, 725, 588},
{542, 532, 499, 449, 435, 403, 459, 445, 465, 448, 453, 398, 373, 371, 419, 429, 424, 434, 435, 384, 354, 361, 358, 339, 438, 440, 444, 434, 435, 301, 308, 328, 372, 403, 437, 424, 417, 373, 362, 341, 394, 369, 393, 389, 400, 335, 358, 368, 363, 370, 478, 461, 444, 440, 426, 314, 314, 320, 321, 298, 285, 262, 252, 218, 261, 257, 269, 276, 282, 255, 257, 263, 244, 307, 333, 342, 346, 353, 319, 314, 300, 299, 287, 255, 197, 197, 208, 193, 207, 206, 200, 225, 238, 226, 306, 328, 303, 296, 313, 257},
{151, 157, 148, 133, 130, 130, 146, 141, 150, 144, 136, 112, 114, 112, 127, 141, 138, 137, 134, 116, 91, 90, 93, 89, 128, 131, 134, 128, 129, 93, 95, 117, 138, 141, 142, 143, 130, 111, 107, 115, 133, 127, 142, 150, 146, 128, 132, 114, 105, 100, 127, 129, 132, 132, 138, 116, 126, 121, 126, 118, 111, 87, 84, 67, 79, 79, 86, 92, 100, 96, 102, 96, 96, 111, 112, 109, 112, 109, 94, 94, 92, 90, 88, 82, 68, 66, 74, 74, 77, 77, 72, 70, 69, 67, 86, 97, 94, 91, 90, 89},
{87, 91, 85, 79, 85, 89, 99, 100, 102, 94, 85, 75, 81, 82, 88, 99, 92, 81, 80, 73, 55, 65, 73, 70, 83, 88, 85, 81, 79, 68, 63, 72, 91, 92, 92, 97, 92, 75, 80, 90, 90, 91, 107, 116, 114, 113, 116, 101, 94, 88, 85, 87, 90, 84, 94, 93, 100, 94, 98, 88, 84, 64, 63, 52, 54, 56, 58, 61, 69, 70, 72, 73, 75, 73, 70, 68, 67, 63, 60, 60, 57, 56, 56, 58, 54, 53, 56, 57, 57, 59, 58, 63, 60, 62, 71, 77, 70, 69, 62, 64},
{76, 76, 74, 72, 78, 84, 95, 94, 97, 90, 82, 79, 82, 79, 79, 83, 72, 64, 67, 64, 55, 62, 68, 62, 68, 71, 66, 64, 64, 60, 58, 62, 74, 73, 73, 80, 76, 65, 71, 77, 72, 76, 94, 116, 119, 123, 128, 116, 100, 100, 95, 93, 94, 89, 93, 93, 93, 89, 91, 80, 78, 66, 65, 61, 64, 66, 69, 69, 97, 97, 100, 102, 107, 92, 93, 90, 95, 88, 76, 67, 65, 53, 55, 54, 52, 52, 50, 55, 53, 54, 52, 60, 54, 58, 66, 71, 63, 62, 56, 57}}

// 11 Reading of the 8 sensors, 100 samples per sensor
{{103, 98, 94, 83, 85, 77, 88, 89, 90, 95, 93, 93, 91, 100, 105, 108, 109, 108, 95, 83, 82, 72, 71, 73, 72, 69, 70, 71, 70, 77, 81, 73, 77, 84, 76, 73, 84, 85, 82, 90, 93, 83, 82, 77, 70, 67, 75, 70, 74, 77, 81, 75, 72, 75, 71, 63, 66, 73, 66, 75, 74, 74, 73, 77, 65, 63, 62, 53, 51, 59, 61, 67, 73, 74, 77, 84, 78, 80, 83, 81, 78, 81, 78, 71, 66, 60, 66, 62, 68, 75, 73, 65, 69, 67, 54, 58, 62, 67, 78, 85},
{294, 276, 231, 198, 203, 176, 189, 203, 204, 224, 230, 249, 253, 266, 271, 275, 275, 270, 245, 242, 239, 233, 220, 224, 205, 230, 240, 249, 258, 260, 229, 196, 193, 187, 183, 191, 215, 226, 221, 213, 221, 197, 179, 186, 198, 196, 196, 209, 209, 221, 217, 213, 192, 239, 249, 249, 253, 257, 198, 190, 176, 182, 177, 185, 156, 167, 166, 173, 171, 172, 164, 169, 164, 174, 173, 170, 165, 164, 162, 173, 182, 196, 191, 184, 179, 171, 167, 171, 168, 165, 186, 174, 193, 208, 206, 192, 205, 214, 220, 221},
{913, 831, 796, 705, 712, 660, 707, 801, 797, 825, 790, 807, 716, 675, 689, 817, 800, 823, 879, 841, 843, 838, 800, 726, 707, 595, 568, 679, 708, 725, 751, 767, 742, 802, 821, 783, 804, 790, 720, 652, 654, 578, 463, 467, 533, 527, 563, 615, 653, 623, 597, 642, 660, 674, 704, 715, 660, 619, 554, 587, 633, 608, 677, 666, 556, 496, 590, 537, 529, 546, 585, 526, 620, 609, 618, 600, 562, 411, 461, 479, 490, 636, 626, 616, 663, 673, 603, 615, 625, 575, 609, 581, 632, 657, 683, 638, 658, 719, 703, 704},
{761, 753, 699, 671, 658, 719, 700, 722, 728, 753, 728, 770, 814, 841, 824, 820, 804, 710, 756, 749, 745, 732, 757, 665, 618, 596, 595, 676, 692, 762, 788, 774, 752, 773, 786, 771, 802, 729, 705, 632, 636, 626, 612, 560, 548, 494, 476, 497, 496, 511, 521, 504, 518, 538, 490, 583, 582, 576, 622, 623, 558, 551, 673, 621, 596, 569, 570, 376, 389, 411, 442, 485, 604, 615, 634, 636, 589, 533, 549, 514, 486, 587, 569, 539, 604, 666, 626, 580, 600, 570, 519, 498, 560, 568, 587, 583, 592, 588, 559, 608},
{308, 352, 333, 321, 322, 321, 282, 334, 325, 330, 358, 379, 333, 351, 356, 333, 310, 329, 327, 314, 302, 305, 281, 273, 294, 287, 268, 346, 353, 357, 387, 393, 332, 327, 310, 281, 328, 344, 324, 326, 316, 264, 229, 262, 239, 232, 223, 227, 192, 207, 225, 220, 224, 255, 246, 228, 245, 296, 319, 320, 324, 316, 275, 244, 243, 235, 231, 242, 217, 212, 231, 237, 278, 300, 317, 300, 301, 238, 259, 264, 275, 275, 290, 251, 249, 270, 275, 262, 329, 328, 312, 317, 316, 238, 213, 239, 221, 233, 243, 271},
{108, 107, 95, 78, 84, 83, 95, 91, 89, 95, 110, 113, 114, 119, 129, 122, 108, 110, 109, 93, 87, 95, 93, 94, 93, 88, 81, 89, 91, 101, 114, 117, 111, 109, 103, 98, 104, 103, 102, 101, 98, 92, 93, 98, 93, 89, 92, 86, 76, 90, 94, 93, 93, 109, 96, 93, 90, 109, 107, 112, 109, 113, 98, 85, 82, 83, 75, 78, 74, 73, 85, 84, 83, 87, 110, 113, 112, 115, 120, 107, 101, 105, 109, 100, 94, 87, 87, 75, 101, 111, 118, 118, 118, 96, 83, 88, 83, 85, 87, 86},
{80, 75, 67, 58, 57, 56, 74, 75, 77, 83, 87, 86, 84, 88, 98, 98, 87, 92, 89, 75, 74, 77, 73, 70, 67, 60, 57, 58, 57, 67, 76, 77, 81, 81, 76, 73, 73, 64, 70, 75, 74, 74, 79, 72, 72, 67, 72, 66, 69, 70, 75, 71, 76, 81, 73, 70, 67, 71, 65, 68, 67, 73, 73, 73, 71, 71, 63, 58, 52, 49, 54, 58, 58, 62, 77, 88, 86, 90, 94, 85, 75, 81, 82, 76, 74, 71, 66, 57, 69, 76, 79, 76, 75, 62, 55, 58, 58, 61, 65, 64},
{74, 71, 69, 61, 59, 53, 69, 72, 76, 81, 82, 79, 75, 77, 80, 85, 80, 82, 77, 70, 65, 65, 62, 62, 59, 54, 48, 50, 50, 59, 66, 67, 71, 76, 71, 67, 69, 66, 66, 75, 76, 74, 76, 69, 61, 56, 62, 56, 60, 60, 65, 60, 60, 63, 58, 53, 55, 59, 53, 57, 55, 56, 61, 64, 62, 59, 54, 46, 44, 43, 47, 55, 57, 55, 68, 78, 75, 79, 82, 75, 67, 72, 70, 66, 64, 61, 56, 50, 60, 65, 65, 64, 64, 58, 51, 52, 51, 51, 55, 56}}

// 12 Reading of the 8 sensors, 100 samples per sensor
{{61, 70, 68, 68, 72, 75, 76, 77, 76, 77, 73, 70, 82, 84, 85, 85, 93, 85, 86, 83, 81, 72, 71, 70, 66, 64, 71, 69, 65, 73, 75, 70, 69, 71, 67, 67, 63, 67, 63, 64, 65, 66, 61, 65, 66, 62, 61, 73, 70, 69, 73, 73, 59, 59, 53, 45, 46, 52, 58, 62, 63, 60, 67, 68, 68, 69, 70, 67, 57, 56, 57, 56, 53, 55, 55, 56, 55, 54, 54, 52, 51, 56, 53, 57, 60, 61, 57, 58, 54, 59, 52, 57, 59, 68, 69, 71, 66, 69, 61, 59},
{274, 282, 267, 257, 263, 226, 204, 206, 226, 248, 257, 259, 245, 232, 201, 213, 233, 257, 247, 250, 270, 263, 241, 248, 240, 207, 208, 214, 221, 223, 219, 211, 220, 226, 220, 244, 242, 255, 244, 249, 244, 251, 224, 259, 286, 276, 297, 358, 337, 326, 327, 322, 242, 246, 241, 236, 212, 233, 227, 222, 226, 217, 261, 269, 273, 278, 280, 286, 281, 262, 248, 242, 170, 168, 206, 225, 229, 231, 234, 221, 235, 243, 250, 254, 245, 249, 246, 250, 251, 274, 266, 280, 271, 265, 242, 224, 207, 196, 198, 194},
{692, 677, 634, 659, 664, 584, 537, 661, 687, 730, 778, 763, 744, 788, 780, 724, 747, 670, 590, 570, 603, 630, 645, 722, 695, 700, 739, 806, 731, 732, 693, 677, 627, 674, 644, 683, 642, 648, 673, 662, 643, 604, 578, 538, 593, 624, 665, 762, 728, 741, 760, 764, 662, 658, 632, 570, 526, 521, 529, 502, 517, 514, 501, 599, 593, 565, 574, 581, 470, 467, 485, 474, 470, 507, 535, 539, 538, 494, 440, 417, 476, 510, 533, 585, 616, 546, 528, 566, 505, 491, 534, 617, 585, 617, 618, 582, 475, 466, 469, 439},
{785, 815, 857, 834, 830, 819, 887, 905, 888, 867, 920, 860, 884, 899, 905, 815, 754, 667, 620, 635, 654, 733, 725, 662, 622, 658, 568, 590, 660, 763, 732, 764, 774, 769, 729, 735, 720, 712, 664, 618, 654, 634, 646, 626, 640, 644, 712, 756, 772, 739, 745, 707, 642, 616, 641, 606, 561, 574, 635, 599, 564, 596, 541, 495, 617, 623, 639, 694, 661, 695, 672, 646, 584, 608, 467, 494, 493, 491, 489, 492, 606, 616, 668, 673, 669, 557, 630, 637, 618, 618, 621, 602, 570, 586, 577, 573, 542, 509, 493, 492},
{441, 426, 426, 388, 408, 326, 345, 323, 398, 389, 403, 426, 500, 449, 458, 458, 448, 391, 387, 393, 378, 356, 348, 388, 386, 385, 376, 387, 378, 345, 353, 365, 341, 306, 310, 292, 280, 312, 302, 313, 379, 372, 375, 381, 412, 373, 381, 381, 384, 345, 330, 311, 263, 232, 236, 219, 252, 265, 326, 322, 318, 326, 340, 289, 404, 414, 424, 432, 423, 354, 351, 314, 281, 320, 267, 264, 294, 297, 269, 276, 294, 296, 302, 337, 339, 328, 310, 322, 277, 282, 297, 308, 317, 336, 349, 324, 319, 287, 287, 276},
{125, 114, 114, 106, 118, 108, 111, 104, 117, 112, 107, 110, 131, 123, 125, 129, 134, 122, 118, 112, 105, 94, 92, 107, 106, 106, 109, 112, 107, 101, 104, 105, 102, 95, 95, 89, 85, 88, 81, 87, 123, 121, 130, 131, 139, 116, 121, 116, 121, 109, 103, 96, 87, 78, 73, 78, 91, 88, 105, 109, 104, 100, 107, 94, 120, 118, 123, 126, 122, 105, 113, 102, 95, 105, 91, 82, 88, 83, 72, 75, 72, 78, 87, 94, 96, 104, 98, 95, 87, 92, 85, 80, 88, 94, 88, 86, 91, 81, 80, 87},
{64, 61, 60, 65, 71, 73, 73, 71, 73, 70, 63, 63, 77, 73, 81, 85, 90, 80, 81, 72, 64, 53, 53, 57, 55, 57, 61, 63, 63, 71, 70, 70, 69, 72, 66, 64, 63, 62, 51, 54, 69, 66, 72, 72, 72, 61, 66, 68, 71, 69, 68, 64, 57, 57, 52, 54, 56, 53, 58, 61, 60, 63, 64, 60, 67, 66, 67, 68, 65, 56, 65, 59, 62, 67, 63, 51, 54, 48, 41, 43, 43, 47, 50, 58, 57, 61, 59, 56, 50, 55, 52, 47, 52, 52, 47, 46, 49, 47, 46, 55},
{49, 50, 48, 51, 55, 62, 62, 63, 62, 58, 50, 50, 63, 64, 70, 72, 78, 69, 71, 66, 61, 52, 50, 50, 47, 45, 48, 49, 48, 59, 59, 57, 55, 57, 51, 50, 51, 53, 46, 45, 52, 50, 51, 52, 56, 52, 52, 57, 58, 57, 57, 56, 48, 48, 39, 39, 39, 39, 48, 50, 50, 51, 53, 47, 48, 48, 49, 46, 41, 43, 45, 41, 46, 48, 44, 39, 41, 38, 38, 40, 38, 43, 40, 47, 45, 52, 47, 50, 43, 46, 39, 39, 39, 42, 41, 43, 43, 45, 43, 49}}

// 13 Reading of the 8 sensors, 100 samples per sensor
{{114, 107, 99, 97, 94, 85, 79, 73, 73, 86, 93, 107, 112, 110, 105, 100, 75, 72, 79, 84, 83, 102, 110, 108, 103, 107, 92, 95, 100, 102, 101, 97, 101, 98, 103, 102, 111, 92, 89, 77, 77, 73, 78, 85, 84, 79, 71, 68, 62, 61, 72, 82, 87, 87, 89, 82, 80, 76, 73, 81, 88, 100, 107, 114, 115, 115, 105, 96, 89, 81, 76, 75, 79, 77, 78, 76, 67, 65, 71, 74, 82, 84, 97, 107, 128, 133, 134, 128, 123, 107, 102, 100, 98, 95, 84, 78, 78, 78, 70, 72},
{335, 331, 289, 294, 288, 256, 227, 245, 233, 276, 288, 349, 350, 347, 315, 320, 276, 259, 254, 291, 294, 338, 375, 374, 356, 346, 289, 298, 297, 322, 324, 310, 326, 334, 303, 281, 301, 228, 210, 235, 318, 351, 353, 426, 410, 360, 308, 327, 253, 245, 273, 300, 276, 273, 287, 249, 246, 247, 229, 222, 233, 224, 252, 261, 247, 256, 242, 203, 206, 218, 209, 245, 270, 268, 263, 256, 226, 215, 214, 257, 296, 296, 296, 291, 308, 290, 292, 292, 295, 276, 274, 286, 283, 270, 249, 232, 204, 202, 211, 179},
{868, 910, 874, 881, 881, 876, 774, 812, 756, 744, 761, 856, 838, 868, 839, 801, 741, 777, 783, 793, 806, 804, 786, 785, 781, 817, 850, 801, 748, 723, 740, 632, 697, 708, 686, 615, 660, 686, 685, 693, 828, 854, 768, 773, 804, 672, 587, 655, 679, 645, 702, 701, 643, 598, 575, 516, 656, 713, 738, 783, 792, 742, 716, 760, 754, 860, 918, 928, 856, 869, 750, 663, 700, 786, 740, 751, 715, 728, 713, 739, 789, 801, 797, 880, 918, 869, 911, 897, 775, 741, 798, 811, 765, 770, 826, 774, 725, 719, 732, 716},
{738, 717, 714, 647, 685, 683, 766, 834, 836, 760, 776, 698, 783, 791, 828, 832, 822, 747, 768, 855, 859, 895, 857, 829, 741, 714, 646, 651, 670, 714, 774, 770, 822, 827, 812, 761, 810, 764, 759, 736, 716, 748, 732, 726, 708, 698, 585, 577, 598, 600, 598, 672, 722, 728, 736, 869, 930, 965, 986, 1011, 1025, 1045, 998, 981, 990, 876, 798, 823, 794, 751, 757, 739, 716, 731, 717, 710, 658, 635, 569, 606, 625, 694, 771, 867, 933, 917, 893, 874, 801, 790, 851, 866, 855, 881, 877, 866, 813, 780, 736, 643},
{400, 366, 365, 397, 370, 335, 345, 348, 338, 355, 369, 375, 463, 459, 440, 472, 471, 383, 385, 390, 344, 330, 334, 324, 327, 338, 328, 372, 436, 431, 444, 450, 406, 323, 328, 282, 314, 328, 369, 374, 406, 399, 384, 340, 330, 285, 290, 290, 305, 302, 337, 304, 336, 352, 340, 357, 363, 378, 373, 387, 379, 476, 471, 490, 499, 488, 401, 370, 364, 342, 332, 321, 313, 273, 269, 267, 263, 257, 255, 246, 233, 220, 245, 250, 254, 249, 272, 313, 308, 327, 341, 344, 334, 322, 341, 334, 307, 253, 248, 198},
{119, 109, 115, 129, 122, 110, 112, 107, 104, 104, 118, 123, 130, 121, 119, 116, 114, 105, 110, 105, 94, 100, 99, 98, 112, 120, 118, 127, 138, 136, 137, 130, 124, 110, 114, 110, 120, 118, 127, 120, 125, 118, 112, 108, 113, 101, 106, 114, 109, 101, 112, 106, 105, 106, 101, 98, 105, 109, 108, 116, 123, 141, 142, 149, 159, 153, 134, 125, 120, 98, 95, 93, 100, 89, 89, 84, 86, 80, 84, 81, 84, 76, 85, 96, 108, 115, 119, 124, 119, 120, 111, 108, 105, 102, 97, 96, 92, 76, 70, 62},
{69, 66, 72, 75, 74, 71, 68, 62, 62, 62, 74, 77, 77, 74, 74, 68, 64, 66, 67, 68, 62, 73, 73, 73, 80, 83, 79, 84, 88, 82, 84, 77, 77, 73, 80, 81, 84, 78, 79, 66, 65, 62, 61, 70, 72, 69, 70, 73, 65, 63, 69, 71, 69, 67, 66, 65, 69, 71, 67, 76, 89, 99, 100, 106, 113, 105, 95, 89, 83, 68, 63, 60, 67, 64, 63, 61, 60, 57, 63, 63, 66, 63, 73, 79, 93, 101, 103, 102, 96, 91, 83, 82, 78, 85, 77, 73, 69, 67, 52, 57},
{67, 63, 64, 65, 64, 60, 60, 55, 54, 58, 65, 69, 74, 75, 74, 69, 60, 57, 56, 56, 53, 68, 70, 70, 75, 78, 71, 75, 81, 76, 76, 69, 69, 64, 69, 70, 76, 68, 67, 56, 54, 48, 48, 59, 60, 62, 64, 64, 57, 55, 54, 56, 59, 57, 57, 55, 57, 58, 58, 67, 77, 88, 91, 92, 98, 95, 84, 77, 75, 62, 54, 56, 60, 58, 57, 53, 50, 46, 51, 51, 56, 56, 68, 73, 87, 92, 94, 90, 86, 80, 74, 73, 68, 74, 66, 64, 63, 68, 56, 62}}

// 14 Reading of the 8 sensors, 100 samples per sensor
{{88, 91, 93, 85, 84, 68, 65, 58, 56, 66, 74, 73, 77, 76, 72, 72, 74, 74, 73, 74, 69, 65, 60, 61, 54, 49, 52, 54, 56, 65, 68, 68, 68, 65, 57, 68, 70, 67, 68, 74, 64, 61, 62, 61, 53, 53, 62, 62, 63, 67, 69, 61, 60, 67, 69, 64, 70, 78, 71, 67, 69, 64, 57, 60, 66, 69, 66, 63, 63, 58, 57, 60, 59, 54, 52, 50, 45, 43, 42, 46, 43, 48, 53, 54, 52, 51, 51, 49, 52, 58, 60, 65, 63, 63, 59, 56, 54, 59, 64, 67},
{236, 227, 259, 263, 248, 207, 209, 176, 184, 212, 242, 265, 274, 283, 272, 276, 252, 260, 251, 253, 235, 246, 228, 230, 218, 236, 212, 215, 207, 210, 218, 252, 254, 247, 256, 238, 230, 231, 225, 249, 237, 224, 221, 220, 176, 198, 212, 212, 236, 279, 260, 260, 272, 274, 312, 346, 373, 404, 394, 345, 343, 346, 313, 311, 328, 310, 271, 272, 274, 239, 244, 233, 244, 242, 244, 244, 246, 201, 196, 206, 175, 212, 212, 209, 241, 256, 239, 240, 239, 228, 214, 202, 201, 217, 177, 167, 167, 218, 204, 223},
{463, 523, 557, 593, 624, 595, 656, 649, 644, 633, 633, 511, 515, 567, 570, 645, 721, 705, 660, 677, 636, 601, 653, 635, 575, 563, 572, 523, 579, 600, 577, 665, 680, 629, 632, 695, 645, 631, 617, 634, 598, 527, 488, 503, 492, 523, 552, 575, 613, 627, 567, 586, 576, 548, 575, 665, 633, 671, 667, 591, 522, 581, 579, 557, 565, 522, 479, 435, 482, 476, 503, 427, 435, 389, 386, 393, 443, 437, 432, 437, 395, 411, 438, 425, 450, 499, 527, 538, 553, 555, 584, 519, 485, 492, 477, 440, 443, 423, 396, 379},
{710, 669, 728, 739, 699, 671, 636, 505, 576, 595, 613, 641, 668, 680, 771, 790, 791, 780, 715, 641, 626, 649, 675, 697, 681, 660, 633, 652, 616, 538, 582, 689, 702, 682, 757, 750, 644, 629, 673, 681, 667, 652, 625, 606, 596, 669, 720, 702, 726, 692, 610, 602, 609, 562, 515, 578, 584, 602, 610, 646, 623, 575, 547, 577, 563, 573, 557, 557, 581, 548, 479, 488, 498, 413, 457, 469, 472, 475, 497, 516, 482, 484, 482, 481, 438, 483, 561, 554, 528, 574, 583, 509, 498, 474, 428, 397, 366, 385, 413, 383},
{445, 441, 419, 410, 378, 308, 272, 282, 299, 321, 335, 374, 371, 350, 363, 382, 334, 338, 335, 320, 282, 306, 281, 319, 331, 342, 357, 364, 333, 330, 348, 314, 341, 345, 324, 317, 322, 338, 327, 364, 368, 361, 326, 339, 314, 323, 324, 328, 336, 331, 300, 318, 304, 283, 256, 275, 293, 285, 296, 325, 323, 315, 321, 312, 280, 259, 219, 200, 223, 219, 234, 233, 240, 229, 235, 214, 228, 222, 200, 225, 223, 205, 222, 236, 203, 200, 205, 207, 191, 198, 192, 184, 161, 211, 223, 225, 273, 305, 292, 275},
{156, 162, 162, 158, 144, 115, 99, 102, 98, 101, 103, 103, 94, 90, 100, 102, 94, 104, 99, 92, 85, 92, 79, 88, 92, 94, 105, 102, 97, 92, 95, 78, 86, 86, 81, 92, 92, 93, 93, 106, 100, 99, 96, 100, 92, 97, 93, 98, 97, 97, 88, 96, 89, 89, 83, 81, 91, 91, 98, 104, 109, 100, 100, 91, 83, 79, 70, 65, 76, 78, 84, 83, 85, 76, 71, 60, 64, 61, 59, 71, 74, 72, 74, 72, 63, 54, 57, 61, 59, 63, 64, 63, 62, 80, 85, 87, 94, 98, 89, 80},
{97, 101, 102, 98, 90, 75, 65, 66, 66, 69, 73, 73, 65, 65, 67, 61, 56, 64, 58, 61, 60, 63, 55, 57, 47, 47, 58, 57, 57, 60, 61, 47, 53, 51, 44, 56, 58, 60, 61, 74, 68, 69, 66, 67, 56, 59, 58, 58, 58, 59, 55, 59, 57, 62, 62, 59, 58, 61, 62, 61, 63, 59, 58, 50, 49, 48, 47, 44, 50, 50, 56, 55, 54, 45, 41, 30, 29, 33, 33, 40, 42, 45, 43, 45, 43, 41, 43, 45, 43, 44, 44, 45, 49, 50, 53, 54, 52, 49, 53, 48},
{80, 82, 81, 73, 66, 55, 52, 52, 54, 58, 64, 64, 60, 56, 55, 49, 46, 48, 48, 53, 50, 49, 47, 46, 36, 37, 45, 45, 47, 51, 51, 45, 47, 44, 36, 47, 49, 48, 49, 60, 54, 54, 55, 56, 45, 49, 49, 46, 47, 47, 44, 43, 44, 48, 53, 50, 52, 54, 53, 49, 48, 45, 42, 39, 38, 39, 39, 38, 35, 34, 38, 37, 37, 34, 34, 26, 26, 29, 30, 34, 36, 37, 37, 37, 34, 32, 36, 36, 38, 43, 45, 44, 46, 45, 44, 42, 42, 39, 42, 36}}

// 15 Reading of the 8 sensors, 100 samples per sensor
{{103, 91, 100, 100, 85, 80, 85, 77, 80, 83, 85, 81, 76, 77, 82, 81, 79, 92, 88, 82, 83, 90, 83, 87, 96, 96, 96, 96, 103, 106, 118, 116, 119, 112, 100, 78, 88, 76, 76, 79, 86, 74, 76, 71, 68, 65, 63, 70, 74, 73, 68, 67, 66, 66, 66, 72, 71, 69, 77, 83, 79, 85, 84, 75, 67, 94, 91, 89, 92, 108, 94, 100, 108, 104, 97, 95, 86, 82, 85, 82, 77, 77, 68, 64, 56, 65, 65, 69, 71, 67, 61, 65, 71, 67, 77, 73, 75, 76, 84, 80},
{257, 252, 283, 274, 265, 235, 236, 181, 181, 180, 198, 181, 185, 178, 182, 166, 171, 173, 176, 163, 157, 162, 150, 145, 170, 181, 180, 196, 203, 193, 227, 241, 246, 250, 248, 209, 219, 204, 203, 203, 204, 176, 168, 146, 140, 131, 140, 146, 174, 172, 196, 184, 198, 180, 180, 166, 182, 170, 166, 169, 175, 176, 170, 178, 174, 213, 204, 203, 199, 226, 187, 205, 215, 210, 203, 215, 197, 202, 204, 200, 171, 178, 155, 145, 126, 147, 142, 158, 171, 171, 169, 173, 178, 166, 193, 198, 196, 199, 224, 229},
{676, 731, 813, 792, 876, 910, 845, 749, 726, 648, 867, 856, 960, 966, 949, 732, 828, 739, 832, 793, 867, 802, 766, 660, 690, 640, 638, 662, 628, 638, 699, 716, 704, 711, 695, 624, 637, 617, 650, 652, 630, 550, 579, 536, 532, 477, 536, 610, 685, 671, 733, 697, 673, 614, 596, 554, 575, 503, 556, 580, 567, 550, 574, 553, 588, 777, 772, 753, 724, 759, 570, 691, 751, 842, 838, 879, 792, 777, 650, 620, 588, 676, 654, 709, 658, 700, 623, 649, 656, 670, 617, 649, 639, 619, 662, 694, 678, 759, 773, 769},
{684, 682, 768, 675, 764, 781, 784, 825, 823, 770, 865, 905, 829, 880, 878, 767, 792, 803, 878, 876, 916, 898, 848, 732, 713, 675, 629, 652, 663, 710, 760, 728, 720, 667, 591, 599, 603, 643, 705, 710, 697, 696, 660, 617, 617, 573, 618, 687, 669, 704, 693, 666, 570, 606, 567, 685, 648, 659, 637, 614, 465, 493, 463, 457, 589, 601, 627, 676, 674, 621, 598, 586, 591, 693, 749, 878, 866, 911, 859, 795, 723, 785, 722, 686, 752, 767, 753, 752, 768, 678, 608, 558, 581, 624, 651, 620, 621, 578, 589, 638},
{330, 332, 338, 313, 316, 317, 291, 250, 246, 236, 254, 263, 277, 330, 318, 327, 352, 354, 355, 369, 346, 386, 400, 375, 392, 392, 386, 374, 354, 371, 380, 321, 323, 338, 274, 262, 264, 260, 265, 270, 268, 256, 241, 214, 179, 239, 253, 266, 276, 279, 252, 249, 271, 269, 271, 245, 239, 188, 202, 199, 210, 240, 250, 237, 250, 236, 242, 252, 257, 289, 301, 271, 270, 296, 273, 261, 303, 287, 257, 241, 241, 200, 221, 229, 222, 262, 248, 239, 269, 273, 250, 256, 282, 264, 266, 263, 255, 210, 192, 206},
{123, 114, 116, 109, 107, 106, 95, 83, 81, 72, 82, 89, 92, 107, 104, 95, 96, 100, 105, 113, 118, 129, 137, 132, 131, 130, 121, 109, 103, 131, 132, 129, 130, 131, 92, 86, 89, 87, 81, 88, 84, 78, 78, 79, 70, 82, 81, 84, 85, 86, 87, 91, 98, 96, 96, 86, 82, 64, 76, 75, 78, 84, 89, 80, 79, 85, 90, 83, 84, 103, 101, 97, 103, 101, 96, 91, 96, 91, 92, 87, 90, 78, 79, 83, 79, 80, 80, 80, 92, 87, 82, 85, 92, 83, 85, 91, 88, 79, 82, 82},
{84, 73, 74, 72, 69, 64, 64, 60, 62, 57, 66, 66, 67, 70, 73, 68, 68, 80, 78, 76, 81, 83, 87, 87, 93, 92, 89, 79, 82, 94, 99, 98, 97, 93, 75, 63, 69, 65, 60, 61, 66, 61, 66, 69, 66, 67, 64, 66, 63, 64, 62, 65, 67, 68, 68, 63, 62, 55, 65, 69, 68, 74, 76, 71, 68, 84, 87, 82, 82, 94, 85, 84, 91, 88, 84, 82, 75, 71, 70, 61, 58, 58, 55, 58, 64, 68, 69, 66, 66, 58, 55, 57, 62, 61, 70, 70, 67, 68, 75, 66},
{82, 69, 70, 71, 62, 57, 58, 56, 56, 57, 63, 63, 62, 70, 70, 65, 64, 75, 72, 71, 74, 77, 76, 74, 78, 77, 77, 72, 79, 81, 88, 88, 89, 86, 79, 71, 77, 71, 65, 64, 67, 57, 59, 58, 55, 51, 50, 55, 54, 53, 51, 52, 51, 52, 53, 53, 53, 49, 61, 65, 63, 70, 70, 61, 58, 78, 75, 73, 74, 85, 75, 76, 84, 82, 81, 77, 74, 68, 68, 62, 58, 56, 53, 55, 56, 63, 65, 65, 66, 58, 52, 53, 56, 55, 65, 63, 61, 65, 68, 60}}

// 16 Reading of the 8 sensors, 100 samples per sensor
{{108, 109, 113, 141, 158, 163, 170, 166, 145, 126, 114, 114, 122, 122, 133, 129, 119, 112, 109, 88, 93, 93, 89, 90, 106, 105, 102, 130, 127, 128, 130, 137, 110, 126, 121, 113, 107, 108, 91, 75, 79, 74, 71, 68, 74, 68, 68, 84, 92, 90, 92, 107, 100, 95, 103, 104, 100, 96, 98, 90, 96, 100, 101, 106, 109, 101, 89, 87, 72, 64, 63, 65, 70, 77, 85, 86, 95, 92, 88, 81, 82, 68, 72, 74, 77, 80, 78, 77, 77, 84, 83, 82, 78, 80, 85, 80, 82, 88, 84, 70},
{402, 390, 388, 433, 438, 448, 455, 455, 423, 398, 347, 359, 373, 373, 412, 407, 396, 377, 366, 309, 310, 355, 340, 311, 371, 409, 349, 361, 390, 368, 332, 345, 342, 330, 329, 321, 346, 341, 340, 315, 303, 294, 279, 258, 260, 243, 240, 259, 338, 319, 327, 325, 327, 267, 280, 301, 310, 296, 299, 277, 275, 305, 324, 307, 311, 290, 310, 309, 312, 329, 339, 278, 263, 300, 287, 282, 281, 283, 223, 262, 292, 323, 350, 360, 349, 349, 328, 318, 325, 382, 379, 361, 340, 337, 291, 295, 313, 356, 375, 340},
{851, 901, 956, 993, 1031, 1147, 1189, 1201, 1157, 1132, 1057, 996, 978, 1012, 1001, 953, 967, 918, 841, 814, 823, 749, 752, 745, 806, 866, 890, 946, 1064, 1024, 957, 956, 924, 842, 876, 910, 897, 888, 834, 766, 712, 637, 649, 613, 582, 586, 644, 655, 800, 849, 881, 907, 888, 853, 829, 832, 862, 876, 894, 885, 870, 823, 788, 756, 784, 804, 809, 846, 788, 751, 719, 669, 650, 685, 671, 653, 680, 618, 680, 744, 886, 970, 996, 913, 885, 763, 681, 707, 760, 846, 882, 815, 757, 739, 653, 626, 658, 781, 758, 772},
{896, 931, 983, 1021, 1014, 1032, 1015, 1017, 990, 954, 946, 915, 862, 792, 751, 679, 776, 735, 802, 798, 856, 788, 795, 818, 864, 813, 777, 756, 771, 712, 663, 695, 718, 663, 705, 744, 672, 665, 652, 571, 559, 557, 557, 538, 608, 593, 602, 587, 693, 682, 689, 730, 746, 639, 662, 686, 771, 787, 851, 863, 885, 803, 769, 724, 650, 587, 573, 636, 598, 577, 558, 594, 517, 494, 502, 552, 540, 536, 546, 632, 627, 689, 739, 732, 728, 741, 662, 682, 746, 690, 721, 720, 666, 673, 690, 618, 622, 693, 623, 630},
{386, 403, 428, 430, 427, 401, 377, 345, 415, 404, 389, 378, 406, 337, 356, 405, 463, 445, 449, 449, 412, 352, 392, 367, 343, 317, 306, 239, 304, 316, 313, 316, 321, 268, 276, 281, 283, 265, 282, 267, 284, 272, 267, 229, 270, 268, 272, 275, 359, 335, 334, 386, 396, 346, 446, 447, 430, 423, 414, 334, 350, 323, 322, 323, 280, 236, 229, 245, 230, 246, 244, 262, 258, 256, 234, 239, 227, 234, 229, 237, 269, 275, 285, 276, 328, 338, 340, 344, 367, 322, 293, 304, 279, 293, 309, 305, 287, 304, 275, 249},
{121, 123, 123, 124, 146, 137, 130, 128, 141, 123, 129, 135, 135, 117, 116, 131, 141, 146, 148, 145, 134, 113, 112, 103, 99, 89, 90, 96, 102, 106, 104, 114, 101, 109, 118, 119, 113, 112, 110, 98, 104, 102, 100, 91, 94, 87, 87, 114, 125, 125, 135, 147, 128, 118, 146, 138, 130, 129, 126, 95, 112, 107, 111, 119, 117, 94, 94, 99, 91, 91, 97, 98, 95, 94, 90, 90, 93, 89, 88, 85, 91, 88, 93, 91, 110, 103, 102, 98, 102, 85, 80, 82, 82, 85, 98, 95, 95, 92, 85, 68},
{84, 84, 82, 87, 105, 98, 99, 103, 103, 93, 103, 107, 107, 99, 102, 98, 91, 91, 91, 81, 80, 82, 78, 74, 80, 82, 73, 88, 92, 90, 87, 97, 80, 90, 94, 91, 84, 83, 76, 68, 69, 69, 72, 69, 70, 67, 71, 96, 97, 99, 104, 108, 87, 82, 92, 86, 82, 84, 88, 79, 92, 88, 92, 92, 96, 83, 83, 80, 75, 69, 73, 70, 74, 73, 71, 69, 82, 77, 77, 73, 84, 74, 74, 73, 83, 70, 68, 64, 66, 54, 53, 52, 57, 56, 67, 66, 66, 64, 61, 50},
{77, 78, 78, 85, 101, 97, 99, 101, 96, 84, 89, 95, 95, 90, 94, 90, 80, 79, 80, 71, 73, 75, 72, 68, 73, 74, 68, 84, 85, 85, 83, 91, 75, 84, 86, 82, 76, 74, 66, 59, 62, 60, 62, 61, 61, 55, 56, 68, 67, 66, 75, 86, 75, 74, 80, 74, 66, 68, 72, 67, 75, 71, 71, 76, 79, 73, 71, 69, 60, 54, 52, 52, 62, 63, 64, 63, 72, 65, 65, 63, 107, 102, 104, 104, 114, 79, 78, 74, 78, 66, 61, 58, 59, 56, 60, 61, 63, 63, 62, 50}}

// 17 Reading of the 8 sensors, 100 samples per sensor
{{92, 87, 82, 72, 70, 78, 68, 77, 82, 79, 102, 109, 121, 142, 156, 155, 174, 170, 168, 162, 164, 145, 152, 139, 157, 141, 150, 149, 154, 143, 152, 150, 143, 137, 134, 120, 124, 118, 124, 112, 107, 90, 97, 88, 86, 90, 84, 75, 73, 73, 84, 85, 83, 86, 89, 83, 89, 90, 83, 89, 81, 81, 77, 79, 71, 77, 68, 72, 66, 64, 58, 61, 56, 65, 66, 66, 64, 67, 64, 64, 68, 69, 79, 74, 70, 70, 74, 68, 75, 78, 85, 79, 76, 76, 85, 77, 84, 83, 82, 75},
{263, 229, 227, 201, 206, 201, 174, 201, 236, 237, 271, 279, 288, 342, 370, 398, 431, 432, 396, 392, 369, 345, 350, 344, 363, 333, 349, 364, 349, 319, 339, 336, 303, 312, 332, 305, 286, 270, 262, 199, 194, 187, 195, 204, 207, 218, 206, 209, 213, 230, 217, 208, 206, 202, 194, 198, 212, 207, 208, 215, 208, 201, 198, 177, 171, 203, 210, 238, 235, 234, 220, 228, 204, 211, 211, 209, 190, 193, 207, 210, 216, 227, 234, 212, 198, 179, 176, 156, 170, 179, 227, 230, 231, 238, 257, 218, 211, 214, 198, 181},
{878, 802, 749, 657, 612, 625, 571, 628, 729, 742, 772, 843, 908, 867, 919, 1032, 994, 898, 967, 983, 924, 984, 1042, 961, 921, 852, 767, 797, 784, 740, 772, 795, 775, 780, 827, 795, 825, 741, 776, 741, 711, 653, 627, 667, 619, 677, 662, 697, 689, 694, 663, 657, 643, 695, 689, 684, 719, 762, 645, 728, 722, 682, 621, 619, 575, 584, 593, 582, 568, 561, 546, 587, 573, 607, 641, 661, 631, 676, 707, 636, 616, 645, 635, 583, 597, 585, 553, 551, 546, 520, 654, 667, 641, 694, 702, 580, 568, 588, 528, 518},
{950, 962, 952, 893, 790, 769, 667, 634, 694, 716, 776, 828, 874, 854, 882, 859, 865, 838, 872, 944, 994, 1061, 1033, 1041, 927, 833, 819, 826, 891, 900, 915, 872, 866, 769, 849, 836, 804, 786, 759, 686, 684, 720, 711, 780, 756, 743, 646, 671, 573, 543, 554, 556, 483, 572, 609, 615, 599, 665, 643, 635, 648, 697, 622, 546, 542, 540, 527, 528, 549, 572, 538, 499, 479, 479, 424, 470, 527, 612, 601, 581, 534, 531, 488, 481, 520, 548, 541, 541, 612, 625, 649, 661, 638, 558, 529, 462, 425, 446, 472, 496},
{179, 170, 192, 199, 191, 213, 205, 202, 209, 221, 215, 214, 204, 245, 244, 254, 285, 294, 282, 288, 299, 294, 306, 297, 295, 333, 356, 380, 410, 413, 405, 380, 356, 320, 311, 279, 273, 261, 273, 304, 299, 290, 283, 266, 225, 201, 249, 261, 260, 282, 291, 258, 272, 271, 259, 250, 238, 216, 211, 209, 226, 252, 251, 250, 250, 221, 199, 184, 164, 152, 161, 164, 187, 221, 220, 213, 258, 291, 269, 271, 307, 281, 240, 236, 250, 204, 197, 183, 190, 170, 209, 192, 208, 222, 232, 202, 221, 222, 215, 219},
{77, 77, 77, 73, 68, 71, 66, 68, 70, 77, 94, 93, 94, 106, 107, 103, 121, 123, 124, 125, 125, 125, 129, 128, 128, 137, 133, 130, 136, 141, 138, 135, 130, 115, 108, 103, 100, 102, 111, 119, 109, 105, 108, 96, 82, 84, 86, 80, 86, 88, 98, 93, 98, 93, 95, 82, 86, 79, 79, 84, 82, 89, 87, 89, 84, 84, 70, 70, 64, 57, 59, 62, 64, 67, 73, 68, 76, 81, 76, 76, 84, 81, 76, 76, 73, 70, 72, 72, 78, 83, 88, 79, 82, 84, 94, 90, 94, 88, 83, 72},
{68, 70, 63, 56, 56, 62, 57, 67, 69, 67, 81, 84, 82, 91, 94, 89, 103, 108, 112, 113, 116, 111, 112, 104, 108, 100, 95, 90, 99, 98, 105, 113, 111, 107, 104, 96, 92, 92, 94, 95, 91, 81, 81, 69, 61, 66, 64, 58, 63, 59, 74, 76, 77, 75, 77, 63, 67, 69, 67, 74, 70, 68, 64, 69, 62, 67, 62, 61, 53, 48, 42, 41, 41, 41, 45, 45, 47, 47, 47, 50, 49, 57, 61, 63, 59, 62, 61, 61, 64, 71, 73, 66, 65, 65, 74, 71, 75, 72, 69, 55},
{67, 68, 64, 58, 55, 63, 59, 63, 64, 62, 80, 85, 86, 98, 103, 96, 106, 107, 108, 108, 110, 102, 108, 98, 105, 96, 97, 91, 100, 99, 103, 111, 108, 106, 101, 93, 91, 94, 94, 92, 90, 77, 72, 64, 58, 66, 65, 61, 64, 62, 73, 74, 80, 78, 82, 70, 74, 69, 64, 67, 61, 61, 61, 69, 65, 69, 63, 57, 47, 42, 45, 47, 49, 53, 56, 49, 47, 49, 43, 47, 47, 51, 56, 59, 56, 58, 56, 57, 58, 61, 67, 64, 62, 61, 69, 63, 67, 65, 65, 57}}

// 18 Reading of the 8 sensors, 100 samples per sensor
{{48, 46, 52, 54, 54, 53, 58, 57, 55, 59, 68, 69, 68, 68, 66, 67, 64, 65, 69, 72, 63, 66, 63, 67, 62, 73, 73, 73, 69, 66, 55, 52, 55, 65, 70, 70, 69, 77, 70, 65, 63, 62, 48, 39, 41, 43, 42, 49, 55, 53, 52, 57, 56, 53, 56, 59, 58, 51, 51, 55, 54, 59, 64, 64, 60, 57, 49, 43, 43, 49, 48, 48, 45, 45, 40, 50, 55, 60, 61, 65, 67, 71, 72, 71, 70, 62, 53, 52, 58, 60, 63, 61, 60, 67, 70, 70, 74, 72, 60, 52},
{125, 128, 158, 174, 175, 176, 192, 185, 171, 180, 186, 181, 165, 179, 166, 188, 185, 188, 196, 196, 173, 188, 182, 181, 188, 201, 183, 183, 169, 159, 130, 134, 145, 195, 207, 225, 244, 244, 215, 205, 182, 150, 145, 128, 135, 136, 144, 165, 171, 165, 168, 167, 149, 136, 144, 148, 145, 145, 149, 149, 149, 151, 183, 179, 169, 166, 173, 131, 140, 140, 134, 120, 137, 126, 131, 169, 180, 175, 187, 184, 171, 205, 215, 209, 211, 194, 148, 138, 158, 191, 201, 197, 187, 184, 155, 146, 161, 167, 151, 151},
{673, 668, 741, 737, 685, 676, 704, 663, 656, 707, 678, 761, 763, 751, 693, 743, 643, 610, 608, 607, 609, 628, 602, 635, 690, 600, 598, 679, 738, 717, 763, 759, 699, 644, 646, 652, 766, 783, 769, 761, 706, 608, 575, 534, 479, 515, 451, 529, 534, 533, 543, 591, 532, 520, 593, 562, 547, 525, 513, 557, 581, 568, 586, 594, 557, 571, 567, 565, 582, 527, 525, 511, 516, 489, 518, 507, 528, 517, 504, 520, 535, 581, 607, 646, 623, 589, 553, 562, 522, 520, 567, 584, 551, 633, 628, 648, 640, 645, 615, 596},
{484, 479, 495, 550, 561, 576, 594, 577, 551, 513, 588, 601, 660, 653, 631, 681, 650, 638, 666, 696, 660, 739, 719, 683, 672, 562, 435, 466, 533, 562, 647, 690, 655, 592, 642, 618, 631, 655, 703, 601, 550, 483, 442, 419, 428, 455, 500, 528, 472, 516, 513, 502, 492, 515, 465, 442, 403, 468, 460, 508, 510, 567, 505, 510, 446, 503, 518, 531, 525, 553, 501, 402, 370, 385, 356, 400, 407, 393, 352, 443, 410, 429, 460, 470, 487, 508, 565, 584, 583, 530, 519, 436, 464, 466, 435, 406, 439, 456, 512, 581},
{244, 229, 230, 251, 254, 238, 227, 210, 211, 190, 245, 264, 268, 269, 270, 285, 277, 294, 299, 307, 253, 253, 247, 246, 241, 238, 219, 204, 173, 172, 211, 220, 225, 242, 281, 277, 308, 323, 316, 308, 291, 273, 258, 262, 245, 229, 209, 197, 195, 188, 191, 231, 267, 260, 255, 255, 245, 226, 227, 224, 235, 232, 222, 227, 220, 233, 195, 179, 162, 166, 149, 160, 168, 202, 203, 202, 224, 228, 199, 220, 241, 217, 239, 251, 231, 207, 214, 179, 204, 235, 234, 220, 223, 211, 184, 180, 217, 221, 209, 214},
{70, 68, 73, 75, 75, 74, 71, 64, 65, 65, 82, 80, 79, 80, 78, 78, 83, 90, 98, 101, 91, 90, 88, 79, 74, 76, 76, 72, 72, 80, 82, 79, 81, 86, 92, 92, 97, 104, 99, 90, 84, 88, 78, 76, 74, 71, 53, 53, 61, 65, 63, 76, 82, 79, 77, 80, 76, 74, 73, 74, 78, 75, 69, 73, 65, 65, 59, 57, 53, 54, 48, 49, 47, 50, 50, 54, 62, 65, 62, 70, 76, 74, 79, 83, 77, 71, 68, 56, 59, 62, 68, 64, 68, 63, 68, 59, 68, 71, 74, 72},
{37, 37, 44, 44, 47, 51, 59, 57, 59, 58, 61, 54, 51, 49, 48, 42, 41, 44, 48, 56, 58, 59, 59, 62, 55, 57, 64, 64, 63, 64, 60, 52, 56, 56, 56, 56, 54, 52, 50, 46, 43, 50, 44, 42, 44, 44, 38, 45, 46, 45, 43, 50, 54, 53, 57, 59, 55, 47, 47, 53, 53, 53, 56, 58, 48, 47, 42, 40, 38, 42, 40, 42, 37, 37, 37, 39, 42, 45, 44, 50, 56, 56, 58, 61, 56, 48, 46, 39, 43, 44, 48, 47, 48, 45, 52, 50, 56, 58, 59, 56},
{34, 32, 33, 33, 36, 40, 47, 48, 52, 52, 55, 52, 50, 47, 47, 42, 41, 44, 46, 48, 51, 52, 49, 49, 45, 46, 50, 52, 53, 53, 50, 44, 46, 47, 45, 42, 43, 46, 43, 42, 42, 44, 35, 32, 35, 36, 35, 41, 43, 42, 41, 44, 44, 43, 44, 50, 48, 43, 46, 49, 47, 47, 50, 50, 44, 42, 38, 33, 31, 34, 36, 37, 35, 35, 37, 37, 39, 44, 44, 48, 54, 53, 53, 54, 48, 42, 41, 38, 42, 44, 46, 44, 45, 44, 49, 46, 51, 51, 49, 46}}

// 19 Reading of the 8 sensors, 100 samples per sensor
{{74, 97, 107, 109, 113, 114, 96, 92, 96, 103, 111, 119, 126, 117, 113, 102, 104, 89, 89, 80, 75, 68, 70, 65, 68, 77, 69, 75, 78, 81, 83, 80, 75, 90, 89, 82, 94, 94, 81, 89, 90, 79, 86, 87, 77, 77, 75, 68, 67, 60, 65, 68, 63, 67, 70, 70, 80, 80, 83, 81, 78, 64, 71, 59, 57, 54, 70, 72, 76, 77, 77, 64, 56, 55, 67, 66, 66, 70, 71, 66, 71, 71, 75, 72, 65, 60, 70, 63, 62, 64, 62, 49, 45, 51, 56, 64, 64, 72, 72, 74},
{200, 233, 243, 245, 265, 276, 237, 240, 283, 285, 285, 296, 289, 234, 228, 219, 233, 240, 258, 245, 237, 216, 197, 173, 168, 174, 187, 187, 192, 195, 201, 176, 209, 251, 257, 265, 283, 257, 209, 214, 203, 194, 206, 207, 199, 194, 191, 183, 202, 185, 188, 184, 182, 227, 232, 234, 245, 242, 182, 180, 189, 174, 184, 172, 191, 179, 173, 181, 225, 235, 233, 239, 225, 200, 182, 177, 163, 169, 154, 167, 162, 166, 164, 161, 144, 148, 173, 183, 187, 174, 178, 156, 134, 130, 160, 185, 188, 199, 211, 208},
{807, 883, 880, 909, 960, 947, 826, 797, 759, 656, 651, 723, 687, 676, 706, 698, 689, 707, 840, 830, 827, 812, 784, 601, 650, 657, 603, 634, 683, 630, 604, 656, 675, 665, 645, 673, 676, 661, 646, 636, 603, 645, 659, 661, 701, 740, 679, 605, 558, 541, 500, 470, 502, 567, 519, 514, 529, 549, 511, 550, 585, 575, 535, 505, 485, 409, 418, 475, 462, 467, 478, 451, 384, 416, 449, 469, 460, 503, 482, 459, 442, 478, 458, 456, 484, 479, 519, 506, 563, 521, 507, 427, 470, 393, 474, 481, 507, 527, 552, 574},
{774, 750, 804, 797, 806, 838, 882, 839, 777, 781, 794, 739, 744, 860, 852, 825, 846, 809, 814, 834, 821, 786, 744, 596, 557, 579, 527, 535, 579, 563, 553, 534, 564, 594, 578, 594, 644, 732, 682, 713, 660, 717, 592, 586, 572, 609, 490, 520, 575, 597, 601, 628, 652, 562, 544, 497, 552, 507, 557, 558, 639, 580, 603, 565, 545, 446, 436, 453, 472, 465, 476, 463, 408, 418, 564, 604, 617, 627, 603, 479, 459, 433, 444, 480, 548, 514, 594, 555, 545, 482, 475, 416, 450, 452, 465, 472, 478, 488, 469, 529},
{428, 479, 565, 533, 528, 544, 522, 449, 498, 469, 472, 423, 495, 463, 466, 445, 435, 326, 281, 268, 232, 280, 265, 284, 271, 272, 229, 212, 212, 222, 227, 247, 246, 233, 240, 235, 248, 301, 290, 297, 293, 266, 209, 206, 182, 196, 224, 244, 259, 263, 271, 265, 257, 242, 255, 255, 240, 229, 235, 217, 275, 273, 319, 320, 326, 261, 271, 255, 254, 252, 242, 273, 244, 235, 240, 257, 204, 241, 244, 235, 237, 252, 232, 246, 243, 257, 246, 228, 244, 238, 221, 235, 236, 223, 251, 237, 233, 239, 237, 223},
{141, 162, 190, 180, 180, 182, 168, 145, 144, 137, 133, 127, 153, 149, 156, 149, 150, 109, 98, 82, 75, 83, 86, 95, 98, 105, 92, 88, 85, 84, 99, 110, 111, 110, 109, 92, 87, 84, 75, 76, 75, 70, 73, 74, 70, 67, 72, 83, 84, 84, 94, 97, 86, 87, 87, 85, 81, 78, 76, 79, 103, 99, 108, 111, 111, 85, 95, 91, 88, 90, 88, 87, 80, 79, 76, 77, 65, 76, 82, 79, 83, 86, 83, 82, 89, 87, 84, 82, 84, 75, 71, 78, 73, 68, 71, 71, 59, 71, 77, 83},
{76, 98, 112, 110, 114, 113, 98, 90, 81, 78, 82, 86, 105, 107, 112, 106, 108, 82, 76, 68, 65, 66, 70, 72, 72, 79, 72, 72, 70, 73, 82, 83, 84, 91, 88, 75, 73, 68, 59, 62, 63, 62, 67, 67, 64, 61, 59, 58, 56, 54, 62, 66, 58, 56, 58, 54, 62, 62, 70, 71, 71, 61, 65, 58, 57, 53, 67, 68, 70, 70, 69, 61, 54, 51, 54, 53, 51, 57, 64, 59, 63, 63, 63, 60, 63, 60, 59, 57, 55, 51, 50, 55, 53, 51, 51, 51, 41, 50, 57, 63},
{58, 78, 87, 88, 89, 90, 74, 73, 70, 74, 78, 84, 96, 94, 95, 90, 93, 72, 68, 63, 61, 54, 61, 60, 58, 66, 61, 61, 61, 67, 72, 72, 71, 79, 76, 66, 67, 67, 59, 62, 64, 60, 63, 61, 60, 58, 59, 55, 59, 52, 60, 64, 61, 58, 60, 53, 60, 59, 65, 67, 67, 56, 60, 51, 48, 45, 54, 56, 58, 58, 57, 48, 39, 40, 49, 48, 51, 54, 57, 50, 56, 56, 59, 55, 57, 53, 53, 48, 47, 46, 44, 47, 44, 47, 46, 47, 42, 48, 51, 56}}

// 20 Reading of the 8 sensors, 100 samples per sensor
{{104, 102, 108, 114, 115, 116, 112, 113, 110, 113, 105, 103, 98, 90, 84, 94, 98, 101, 118, 125, 135, 132, 143, 131, 125, 110, 111, 90, 95, 98, 99, 98, 99, 85, 83, 80, 75, 82, 87, 84, 86, 93, 88, 84, 82, 80, 73, 70, 72, 80, 72, 73, 77, 77, 81, 83, 86, 83, 85, 75, 80, 85, 85, 83, 88, 84, 72, 72, 87, 81, 79, 79, 75, 60, 62, 62, 67, 67, 64, 61, 66, 67, 72, 73, 76, 75, 71, 68, 66, 68, 66, 63, 62, 57, 53, 50, 50, 50, 54, 60},
{251, 227, 243, 250, 282, 300, 292, 299, 306, 290, 261, 253, 234, 193, 178, 197, 217, 235, 280, 307, 327, 316, 337, 314, 290, 272, 277, 226, 236, 264, 264, 274, 277, 245, 215, 205, 182, 206, 228, 239, 223, 225, 203, 194, 171, 186, 195, 203, 190, 214, 209, 208, 218, 218, 210, 213, 241, 228, 245, 240, 245, 222, 210, 204, 207, 199, 171, 198, 212, 201, 201, 213, 206, 196, 203, 193, 220, 219, 240, 235, 249, 235, 242, 217, 241, 230, 216, 203, 201, 193, 226, 220, 216, 209, 225, 194, 194, 220, 222, 226},
{817, 797, 801, 869, 926, 931, 962, 976, 932, 916, 879, 860, 813, 716, 679, 781, 810, 887, 934, 930, 955, 913, 882, 842, 861, 877, 965, 961, 1000, 970, 864, 819, 783, 724, 733, 785, 754, 718, 769, 795, 699, 662, 739, 760, 711, 775, 810, 813, 730, 725, 693, 697, 622, 647, 654, 666, 708, 714, 761, 733, 749, 667, 671, 678, 682, 753, 764, 760, 707, 714, 575, 603, 618, 623, 622, 625, 644, 630, 609, 615, 612, 650, 678, 661, 711, 772, 679, 729, 741, 669, 633, 617, 523, 512, 597, 630, 696, 674, 707, 720},
{764, 707, 684, 752, 754, 736, 844, 954, 896, 901, 920, 832, 714, 809, 815, 737, 724, 750, 635, 596, 663, 699, 670, 681, 640, 602, 607, 602, 582, 687, 714, 701, 720, 726, 694, 658, 620, 587, 601, 670, 680, 761, 757, 761, 657, 638, 624, 645, 629, 680, 708, 664, 624, 632, 649, 624, 653, 673, 721, 670, 693, 633, 656, 622, 573, 537, 558, 496, 460, 535, 553, 569, 593, 585, 543, 514, 588, 563, 575, 604, 620, 513, 544, 560, 539, 591, 580, 566, 523, 479, 475, 484, 500, 487, 553, 536, 525, 519, 524, 478},
{250, 309, 315, 319, 311, 297, 243, 281, 302, 314, 316, 301, 263, 235, 221, 243, 255, 273, 278, 304, 319, 309, 310, 298, 270, 238, 232, 214, 225, 250, 251, 273, 278, 256, 242, 238, 228, 214, 228, 243, 255, 323, 321, 318, 311, 329, 259, 262, 252, 254, 214, 208, 219, 223, 223, 243, 276, 262, 254, 251, 265, 258, 288, 297, 281, 265, 258, 232, 232, 229, 213, 196, 186, 180, 177, 183, 180, 187, 199, 226, 255, 263, 284, 271, 254, 244, 230, 197, 197, 218, 191, 188, 192, 192, 191, 215, 217, 215, 224, 231},
{75, 97, 101, 112, 109, 109, 97, 102, 95, 101, 99, 92, 78, 85, 85, 100, 105, 114, 106, 109, 107, 102, 106, 103, 93, 89, 87, 74, 77, 76, 70, 80, 83, 85, 91, 90, 84, 86, 82, 78, 91, 107, 105, 104, 107, 102, 84, 81, 78, 81, 75, 74, 75, 83, 84, 84, 96, 97, 89, 85, 85, 83, 88, 96, 94, 92, 87, 80, 84, 84, 81, 74, 75, 65, 63, 68, 74, 75, 74, 78, 73, 68, 71, 70, 70, 77, 77, 74, 69, 65, 64, 62, 56, 59, 62, 62, 65, 65, 71, 75},
{64, 69, 72, 76, 77, 78, 76, 77, 75, 85, 82, 77, 74, 74, 64, 76, 83, 83, 84, 86, 79, 70, 78, 71, 65, 66, 68, 58, 60, 63, 56, 59, 60, 62, 63, 65, 64, 65, 63, 59, 75, 79, 80, 76, 77, 64, 56, 53, 54, 59, 54, 54, 51, 53, 62, 61, 68, 70, 67, 58, 64, 69, 69, 74, 75, 70, 60, 57, 65, 64, 63, 63, 63, 51, 51, 52, 56, 61, 60, 60, 61, 60, 55, 54, 56, 58, 57, 58, 58, 54, 53, 48, 45, 43, 41, 34, 35, 37, 43, 50},
{64, 67, 70, 72, 71, 70, 70, 71, 67, 74, 72, 67, 63, 66, 61, 69, 75, 73, 80, 83, 85, 80, 90, 82, 77, 71, 72, 61, 63, 66, 64, 62, 63, 62, 64, 62, 62, 64, 60, 54, 66, 71, 69, 67, 68, 56, 46, 44, 44, 49, 49, 49, 51, 53, 56, 54, 58, 59, 58, 50, 57, 58, 59, 63, 64, 59, 57, 54, 61, 60, 59, 58, 56, 44, 45, 46, 47, 49, 50, 51, 52, 53, 53, 54, 54, 55, 53, 52, 48, 46, 43, 41, 41, 39, 37, 33, 32, 33, 39, 46}}

// 21 Reading of the 8 sensors, 100 samples per sensor
{{74, 74, 85, 92, 90, 88, 97, 92, 92, 93, 91, 92, 90, 84, 87, 95, 95, 107, 126, 125, 123, 117, 111, 92, 86, 85, 88, 80, 77, 87, 91, 93, 92, 99, 102, 99, 89, 92, 90, 71, 64, 66, 68, 68, 77, 77, 74, 70, 65, 60, 56, 57, 54, 54, 53, 60, 70, 70, 82, 94, 91, 85, 86, 81, 66, 65, 67, 64, 57, 55, 56, 55, 57, 53, 54, 62, 60, 57, 58, 57, 54, 55, 56, 57, 69, 73, 80, 78, 81, 71, 66, 61, 61, 57, 59, 61, 67, 69, 70, 74},
{191, 233, 288, 321, 351, 367, 356, 327, 297, 247, 212, 259, 261, 257, 264, 273, 243, 249, 307, 315, 304, 331, 332, 317, 324, 332, 331, 325, 289, 280, 282, 251, 243, 260, 292, 302, 279, 284, 274, 231, 213, 217, 230, 263, 284, 290, 286, 269, 227, 196, 191, 199, 215, 218, 212, 189, 178, 148, 168, 190, 208, 212, 221, 207, 204, 185, 190, 190, 182, 179, 186, 186, 175, 184, 183, 206, 192, 200, 197, 201, 169, 195, 203, 210, 196, 216, 217, 229, 231, 232, 229, 214, 182, 166, 173, 168, 165, 176, 191, 185},
{631, 673, 706, 759, 816, 763, 822, 811, 730, 677, 669, 671, 641, 766, 813, 871, 781, 789, 721, 701, 661, 752, 791, 845, 819, 859, 826, 829, 793, 877, 818, 842, 809, 817, 782, 815, 800, 846, 812, 769, 774, 735, 675, 687, 713, 692, 688, 672, 628, 575, 625, 620, 645, 678, 734, 692, 709, 690, 681, 608, 600, 570, 540, 505, 510, 473, 511, 565, 608, 631, 658, 653, 617, 613, 592, 609, 560, 572, 538, 510, 476, 489, 536, 586, 613, 568, 591, 578, 533, 575, 587, 573, 576, 603, 555, 590, 599, 567, 521, 503},
{918, 979, 1027, 944, 923, 821, 856, 819, 837, 915, 898, 876, 919, 990, 1036, 1079, 1049, 1015, 916, 778, 732, 728, 762, 818, 794, 847, 826, 734, 664, 665, 628, 713, 777, 778, 812, 862, 837, 834, 909, 877, 789, 791, 762, 748, 726, 785, 752, 748, 705, 702, 733, 719, 731, 772, 788, 733, 767, 837, 828, 913, 930, 958, 896, 839, 801, 802, 764, 748, 723, 654, 583, 511, 661, 695, 705, 724, 775, 683, 685, 693, 707, 692, 630, 649, 613, 547, 484, 528, 528, 600, 614, 639, 645, 592, 615, 594, 646, 608, 620, 560},
{421, 455, 454, 474, 510, 452, 460, 473, 463, 450, 457, 455, 456, 464, 482, 488, 531, 523, 494, 487, 524, 468, 471, 472, 434, 389, 397, 392, 438, 449, 470, 445, 455, 396, 413, 414, 455, 426, 439, 418, 348, 304, 356, 381, 376, 465, 460, 487, 453, 489, 420, 467, 425, 462, 441, 478, 457, 453, 491, 499, 510, 506, 532, 511, 506, 513, 510, 480, 432, 432, 367, 336, 405, 413, 405, 398, 432, 415, 411, 410, 481, 472, 403, 412, 436, 364, 352, 363, 362, 367, 360, 370, 385, 373, 358, 364, 418, 403, 409, 377},
{129, 133, 136, 140, 143, 127, 145, 138, 134, 134, 129, 116, 125, 125, 136, 145, 167, 178, 176, 176, 192, 170, 169, 169, 165, 146, 154, 143, 147, 143, 140, 129, 137, 121, 119, 116, 126, 117, 129, 128, 121, 113, 137, 139, 146, 165, 161, 150, 138, 144, 122, 131, 118, 133, 132, 155, 153, 154, 167, 160, 143, 146, 161, 152, 152, 164, 160, 144, 138, 140, 121, 116, 138, 130, 123, 123, 131, 114, 110, 113, 130, 129, 116, 121, 132, 119, 122, 121, 122, 111, 113, 106, 115, 109, 111, 108, 130, 128, 128, 123},
{62, 65, 70, 71, 69, 71, 79, 76, 73, 77, 73, 70, 71, 74, 83, 94, 107, 121, 128, 123, 131, 117, 111, 109, 109, 94, 101, 93, 86, 84, 86, 83, 83, 78, 75, 72, 70, 68, 71, 69, 64, 65, 77, 79, 84, 92, 87, 73, 70, 73, 61, 64, 61, 65, 64, 75, 80, 81, 91, 93, 87, 89, 95, 87, 80, 84, 79, 73, 78, 79, 73, 72, 80, 69, 65, 63, 66, 55, 53, 60, 64, 58, 57, 66, 75, 81, 92, 92, 89, 80, 75, 62, 61, 57, 57, 59, 67, 70, 68, 65},
{45, 47, 55, 61, 61, 64, 72, 72, 72, 73, 69, 63, 59, 55, 63, 72, 80, 94, 103, 98, 104, 96, 89, 83, 81, 72, 77, 69, 65, 68, 70, 73, 75, 74, 73, 68, 61, 62, 60, 55, 50, 50, 57, 60, 65, 68, 64, 54, 50, 53, 48, 49, 47, 50, 43, 54, 63, 64, 71, 80, 74, 69, 72, 70, 56, 60, 60, 54, 53, 56, 53, 53, 57, 49, 43, 45, 46, 42, 42, 48, 48, 44, 45, 50, 51, 50, 59, 58, 63, 57, 60, 52, 51, 44, 47, 48, 56, 57, 55, 54}}

// 22 Reading of the 8 sensors, 100 samples per sensor
{{155, 144, 117, 121, 119, 120, 119, 113, 95, 93, 98, 101, 107, 115, 121, 120, 118, 112, 105, 101, 108, 110, 110, 129, 130, 123, 123, 127, 116, 109, 108, 119, 132, 124, 120, 115, 100, 77, 81, 100, 103, 110, 116, 119, 106, 112, 117, 115, 109, 105, 94, 75, 74, 70, 77, 81, 83, 77, 88, 92, 91, 89, 102, 101, 102, 108, 112, 101, 97, 91, 81, 74, 68, 65, 61, 59, 65, 73, 68, 75, 78, 77, 71, 81, 89, 95, 94, 100, 98, 89, 79, 77, 70, 63, 57, 61, 59, 62, 72, 72},
{401, 392, 361, 329, 305, 319, 285, 287, 269, 256, 256, 260, 258, 257, 260, 259, 256, 259, 273, 285, 284, 303, 306, 310, 297, 286, 286, 275, 271, 252, 232, 197, 238, 232, 234, 256, 256, 249, 229, 270, 255, 272, 248, 242, 192, 188, 203, 228, 246, 244, 244, 214, 198, 182, 196, 217, 215, 210, 210, 202, 195, 197, 201, 202, 208, 237, 245, 243, 259, 277, 238, 225, 235, 237, 201, 212, 221, 201, 178, 187, 194, 190, 207, 252, 274, 275, 276, 303, 276, 256, 242, 236, 216, 197, 186, 188, 178, 142, 151, 146},
{1071, 1031, 972, 901, 859, 851, 826, 861, 855, 903, 917, 887, 819, 893, 876, 843, 852, 911, 832, 833, 867, 846, 864, 905, 905, 839, 840, 814, 802, 771, 853, 827, 811, 864, 913, 881, 864, 847, 787, 732, 742, 798, 843, 835, 816, 782, 780, 775, 797, 766, 742, 733, 735, 745, 775, 796, 752, 682, 639, 623, 646, 644, 741, 686, 698, 664, 716, 609, 619, 598, 570, 550, 602, 674, 640, 690, 659, 636, 594, 642, 665, 649, 700, 738, 780, 738, 755, 718, 662, 603, 631, 665, 657, 646, 624, 575, 513, 496, 456, 456},
{977, 933, 872, 960, 956, 951, 917, 895, 798, 825, 888, 1031, 1063, 1057, 1033, 939, 776, 847, 887, 822, 830, 835, 726, 727, 823, 840, 929, 964, 918, 859, 923, 858, 870, 882, 977, 904, 908, 844, 893, 823, 860, 860, 906, 878, 935, 926, 939, 888, 847, 752, 789, 829, 812, 841, 872, 839, 871, 938, 977, 992, 982, 920, 984, 919, 896, 856, 855, 725, 736, 672, 717, 664, 704, 679, 701, 693, 691, 631, 613, 608, 592, 589, 646, 690, 778, 792, 797, 829, 782, 715, 747, 725, 600, 643, 619, 644, 651, 668, 662, 649},
{687, 604, 520, 508, 433, 482, 460, 448, 425, 446, 410, 438, 462, 495, 473, 463, 435, 434, 380, 321, 362, 353, 416, 460, 507, 473, 478, 421, 380, 366, 375, 404, 476, 535, 545, 553, 558, 497, 530, 531, 574, 545, 531, 411, 375, 306, 305, 287, 305, 339, 342, 364, 369, 371, 355, 369, 379, 428, 472, 453, 411, 401, 369, 306, 349, 394, 382, 381, 402, 370, 357, 367, 373, 352, 395, 371, 372, 348, 351, 303, 315, 293, 299, 349, 351, 333, 336, 346, 284, 269, 275, 254, 223, 241, 263, 306, 318, 336, 320, 296},
{196, 182, 166, 170, 164, 154, 143, 141, 129, 122, 119, 128, 129, 152, 157, 151, 147, 144, 120, 99, 117, 114, 130, 152, 164, 154, 154, 148, 139, 130, 129, 141, 164, 174, 179, 184, 177, 144, 136, 128, 146, 146, 156, 141, 141, 131, 140, 132, 133, 131, 122, 109, 102, 98, 98, 102, 113, 132, 156, 157, 147, 137, 131, 104, 101, 115, 113, 99, 96, 94, 87, 90, 99, 93, 109, 105, 108, 101, 106, 97, 99, 93, 92, 100, 96, 92, 90, 91, 87, 82, 81, 79, 89, 85, 96, 105, 109, 102, 103, 97},
{109, 102, 96, 105, 110, 109, 107, 101, 88, 83, 78, 90, 91, 105, 110, 106, 99, 94, 82, 74, 84, 84, 89, 108, 111, 106, 104, 108, 100, 97, 98, 122, 132, 130, 130, 127, 109, 84, 73, 71, 81, 79, 102, 111, 115, 119, 126, 109, 98, 93, 78, 65, 69, 68, 73, 78, 78, 77, 96, 98, 90, 87, 98, 81, 78, 84, 87, 70, 66, 63, 59, 56, 63, 62, 65, 68, 66, 72, 72, 75, 71, 71, 62, 68, 71, 72, 81, 85, 88, 82, 82, 72, 74, 68, 71, 70, 68, 56, 61, 55},
{103, 96, 89, 97, 98, 97, 97, 89, 71, 68, 68, 74, 77, 89, 93, 89, 86, 82, 73, 67, 77, 75, 78, 95, 96, 91, 93, 95, 88, 87, 86, 104, 112, 107, 104, 101, 87, 69, 68, 72, 76, 75, 91, 97, 97, 100, 105, 92, 80, 76, 69, 57, 56, 58, 62, 63, 58, 60, 76, 80, 75, 74, 86, 75, 76, 80, 83, 68, 63, 55, 49, 49, 50, 53, 53, 56, 53, 62, 60, 66, 63, 63, 52, 58, 62, 66, 72, 76, 79, 75, 72, 64, 63, 59, 60, 60, 59, 55, 60, 54}}

// 23 Reading of the 8 sensors, 100 samples per sensor
{{124, 121, 125, 124, 124, 122, 113, 118, 127, 135, 127, 135, 142, 131, 122, 125, 113, 97, 100, 102, 100, 102, 94, 94, 93, 90, 96, 110, 110, 111, 117, 112, 107, 112, 127, 120, 117, 110, 105, 85, 97, 107, 109, 111, 110, 99, 92, 86, 78, 81, 76, 69, 66, 69, 72, 74, 77, 80, 84, 89, 107, 113, 116, 110, 101, 80, 71, 72, 80, 80, 86, 93, 89, 88, 93, 92, 85, 99, 115, 109, 112, 110, 94, 72, 74, 69, 70, 79, 96, 95, 95, 97, 96, 74, 74, 73, 73, 74, 69, 72},
{321, 286, 299, 272, 281, 268, 293, 287, 302, 293, 305, 286, 302, 299, 291, 283, 266, 265, 287, 292, 274, 272, 265, 249, 256, 301, 301, 288, 281, 287, 271, 285, 314, 313, 307, 284, 315, 321, 349, 354, 367, 362, 345, 336, 315, 340, 319, 345, 331, 347, 334, 344, 328, 335, 360, 392, 379, 371, 364, 331, 291, 307, 310, 312, 334, 325, 319, 307, 307, 317, 307, 326, 337, 346, 322, 325, 291, 308, 309, 306, 312, 299, 252, 237, 220, 209, 244, 285, 342, 347, 328, 306, 285, 224, 224, 242, 247, 303, 304, 301},
{975, 858, 909, 832, 849, 861, 861, 782, 860, 853, 800, 788, 805, 762, 761, 878, 941, 937, 973, 974, 912, 875, 829, 741, 718, 684, 702, 741, 797, 799, 806, 771, 790, 801, 880, 855, 865, 901, 831, 790, 809, 828, 736, 802, 749, 801, 783, 820, 779, 793, 738, 650, 635, 608, 586, 657, 729, 703, 732, 786, 688, 668, 713, 689, 668, 729, 789, 781, 884, 950, 996, 943, 963, 932, 884, 763, 747, 753, 655, 588, 699, 704, 666, 722, 800, 757, 753, 804, 848, 757, 713, 718, 673, 605, 605, 615, 609, 664, 673, 643},
{670, 683, 849, 867, 867, 921, 992, 889, 953, 949, 890, 818, 823, 733, 666, 761, 804, 832, 863, 963, 912, 834, 763, 769, 682, 704, 765, 808, 792, 817, 847, 833, 830, 923, 885, 795, 846, 889, 808, 909, 948, 901, 805, 832, 801, 792, 842, 854, 820, 735, 840, 755, 723, 729, 743, 588, 619, 660, 619, 605, 634, 613, 595, 567, 551, 561, 627, 667, 825, 872, 924, 899, 883, 780, 761, 700, 738, 713, 735, 687, 659, 563, 660, 629, 683, 672, 697, 671, 678, 644, 635, 685, 637, 604, 604, 566, 595, 577, 565, 598},
{354, 367, 426, 440, 451, 464, 454, 408, 403, 378, 345, 334, 326, 292, 266, 283, 302, 329, 391, 409, 441, 426, 426, 365, 391, 349, 368, 400, 413, 403, 417, 410, 344, 431, 428, 404, 432, 464, 411, 434, 455, 423, 389, 371, 339, 321, 329, 333, 294, 290, 310, 309, 305, 346, 348, 311, 313, 318, 294, 275, 316, 302, 322, 311, 296, 254, 311, 300, 308, 346, 341, 299, 274, 258, 242, 256, 254, 261, 288, 256, 249, 257, 283, 254, 243, 236, 217, 166, 186, 202, 192, 195, 195, 167, 167, 141, 136, 162, 169, 174},
{141, 143, 152, 149, 150, 147, 141, 126, 124, 120, 129, 126, 120, 118, 108, 97, 101, 110, 113, 123, 139, 137, 133, 133, 126, 110, 105, 120, 113, 118, 110, 112, 95, 116, 131, 130, 137, 140, 131, 110, 121, 116, 110, 106, 114, 101, 101, 101, 90, 88, 89, 83, 82, 98, 93, 88, 90, 95, 86, 96, 108, 108, 109, 104, 91, 77, 93, 102, 106, 119, 119, 106, 95, 93, 90, 92, 96, 102, 110, 100, 102, 96, 88, 76, 76, 64, 66, 71, 76, 78, 78, 75, 70, 59, 59, 52, 67, 71, 70, 71},
{100, 106, 110, 110, 117, 113, 104, 98, 98, 111, 121, 119, 120, 116, 97, 85, 87, 79, 83, 89, 91, 95, 92, 97, 92, 86, 77, 96, 87, 86, 84, 90, 74, 87, 98, 94, 89, 91, 86, 72, 83, 84, 82, 81, 85, 81, 84, 82, 76, 76, 71, 62, 58, 67, 62, 57, 58, 62, 53, 67, 78, 79, 82, 80, 68, 58, 61, 68, 79, 82, 87, 85, 79, 75, 79, 72, 75, 84, 84, 77, 82, 78, 61, 57, 60, 54, 53, 65, 69, 68, 69, 69, 63, 59, 59, 54, 57, 59, 56, 56},
{90, 91, 99, 99, 102, 102, 111, 129, 133, 133, 129, 122, 112, 105, 107, 109, 101, 85, 85, 85, 88, 94, 93, 94, 98, 99, 93, 129, 132, 124, 126, 129, 93, 101, 117, 105, 101, 100, 87, 68, 81, 80, 90, 92, 92, 87, 102, 95, 90, 90, 87, 92, 90, 95, 100, 102, 81, 82, 78, 94, 118, 117, 122, 119, 106, 95, 99, 98, 105, 105, 95, 92, 90, 97, 97, 90, 90, 98, 93, 86, 87, 84, 64, 54, 56, 51, 50, 55, 58, 55, 62, 62, 61, 55, 55, 54, 54, 54, 51, 50}}

// 24 Reading of the 8 sensors, 100 samples per sensor
{{65, 70, 68, 69, 65, 70, 76, 76, 75, 90, 90, 85, 86, 90, 82, 82, 86, 90, 87, 89, 88, 85, 88, 87, 83, 86, 92, 87, 101, 103, 101, 97, 93, 79, 82, 83, 77, 84, 82, 82, 82, 87, 84, 90, 89, 82, 80, 84, 77, 78, 82, 87, 86, 87, 87, 89, 96, 89, 89, 93, 100, 96, 100, 108, 100, 96, 92, 90, 76, 90, 81, 78, 76, 78, 56, 57, 55, 63, 65, 70, 68, 64, 55, 48, 44, 44, 54, 54, 55, 56, 58, 49, 53, 54, 52, 49, 53, 47, 47, 49},
{282, 308, 266, 279, 277, 286, 286, 274, 272, 272, 279, 319, 328, 329, 340, 339, 328, 333, 352, 353, 366, 388, 394, 374, 352, 331, 278, 254, 275, 310, 313, 297, 292, 295, 264, 279, 263, 286, 249, 282, 262, 293, 279, 328, 328, 326, 332, 331, 279, 250, 282, 271, 297, 325, 347, 329, 344, 336, 305, 282, 288, 259, 233, 272, 278, 270, 302, 315, 283, 294, 297, 254, 237, 247, 203, 193, 189, 177, 191, 203, 197, 203, 204, 206, 196, 216, 230, 235, 212, 221, 188, 166, 211, 215, 204, 211, 219, 162, 155, 176},
{811, 800, 786, 776, 778, 731, 711, 780, 772, 819, 833, 835, 761, 793, 693, 695, 679, 755, 770, 830, 924, 963, 943, 896, 844, 776, 749, 702, 780, 860, 837, 810, 824, 762, 643, 608, 635, 669, 640, 752, 762, 735, 791, 836, 791, 782, 799, 729, 700, 750, 747, 730, 694, 739, 684, 687, 697, 818, 739, 758, 822, 788, 638, 668, 684, 620, 610, 609, 640, 559, 585, 627, 636, 580, 594, 518, 468, 476, 476, 422, 424, 430, 473, 508, 529, 598, 622, 592, 601, 590, 538, 517, 566, 551, 557, 534, 567, 501, 459, 464},
{789, 738, 740, 793, 732, 633, 592, 543, 502, 495, 535, 668, 761, 770, 768, 759, 644, 563, 628, 642, 813, 853, 901, 932, 925, 777, 731, 691, 665, 748, 756, 757, 729, 641, 556, 593, 652, 726, 818, 802, 794, 729, 678, 615, 625, 617, 663, 712, 680, 737, 720, 737, 708, 690, 625, 653, 622, 615, 646, 705, 692, 658, 627, 587, 575, 551, 522, 500, 535, 460, 431, 468, 469, 454, 475, 470, 469, 533, 481, 441, 442, 461, 462, 490, 535, 579, 578, 543, 580, 530, 494, 519, 558, 514, 508, 512, 445, 369, 436, 466},
{321, 288, 286, 322, 329, 291, 316, 322, 290, 324, 339, 454, 467, 543, 552, 570, 502, 499, 414, 422, 395, 353, 354, 371, 320, 292, 278, 302, 323, 324, 323, 339, 346, 318, 314, 330, 322, 267, 265, 257, 244, 250, 252, 235, 233, 258, 255, 253, 272, 282, 260, 250, 257, 231, 215, 204, 237, 234, 262, 264, 277, 258, 237, 207, 206, 181, 157, 161, 203, 198, 187, 188, 186, 184, 207, 208, 211, 213, 191, 177, 179, 190, 204, 185, 173, 214, 208, 205, 207, 208, 178, 175, 163, 178, 185, 172, 179, 166, 153, 145},
{84, 80, 79, 88, 95, 92, 111, 115, 109, 117, 124, 158, 161, 183, 190, 192, 162, 164, 142, 135, 126, 115, 99, 99, 77, 87, 109, 169, 182, 201, 210, 199, 160, 149, 125, 105, 113, 106, 98, 100, 100, 117, 118, 120, 119, 112, 101, 96, 98, 103, 104, 87, 90, 83, 76, 77, 88, 89, 91, 93, 96, 93, 89, 88, 84, 82, 73, 72, 75, 79, 75, 76, 79, 89, 85, 82, 84, 87, 72, 71, 71, 72, 64, 59, 62, 72, 72, 72, 72, 70, 61, 53, 50, 53, 51, 50, 49, 48, 49, 52},
{55, 60, 60, 66, 68, 69, 71, 73, 73, 84, 107, 150, 156, 163, 171, 159, 121, 118, 106, 80, 81, 76, 67, 70, 76, 107, 168, 225, 236, 246, 241, 206, 140, 122, 100, 85, 87, 95, 99, 99, 97, 105, 98, 95, 94, 91, 80, 85, 83, 92, 89, 83, 81, 78, 69, 71, 78, 73, 79, 75, 79, 72, 76, 77, 76, 77, 71, 69, 62, 72, 65, 63, 63, 66, 53, 54, 60, 69, 64, 68, 65, 62, 49, 46, 45, 51, 51, 52, 53, 51, 44, 43, 41, 43, 42, 40, 36, 33, 31, 36},
{50, 52, 52, 53, 51, 53, 52, 54, 54, 61, 61, 64, 62, 65, 62, 60, 56, 58, 53, 50, 52, 53, 58, 59, 57, 63, 65, 67, 76, 79, 76, 74, 67, 61, 60, 56, 55, 62, 58, 57, 63, 67, 63, 67, 65, 59, 57, 59, 54, 64, 65, 62, 66, 65, 58, 60, 68, 60, 65, 65, 71, 68, 69, 71, 66, 65, 57, 56, 51, 61, 54, 55, 54, 52, 37, 37, 38, 49, 49, 55, 54, 52, 43, 41, 35, 38, 44, 43, 43, 44, 41, 34, 34, 37, 35, 34, 33, 31, 32, 34}}

// 25 Reading of the 8 sensors, 100 samples per sensor
{{92, 87, 100, 117, 139, 137, 136, 126, 111, 81, 93, 97, 94, 93, 106, 100, 105, 105, 107, 93, 85, 73, 73, 79, 86, 96, 91, 119, 123, 123, 112, 112, 87, 87, 84, 85, 93, 102, 100, 109, 123, 120, 108, 100, 90, 69, 71, 87, 87, 90, 91, 93, 83, 85, 83, 91, 88, 90, 89, 86, 81, 78, 69, 77, 81, 85, 87, 88, 82, 85, 75, 81, 85, 85, 80, 83, 78, 78, 74, 74, 70, 65, 56, 56, 58, 62, 64, 76, 81, 78, 77, 82, 75, 77, 85, 85, 74, 73, 69, 65},
{275, 258, 292, 319, 376, 359, 369, 344, 342, 270, 291, 296, 291, 267, 273, 254, 279, 263, 277, 254, 251, 210, 214, 206, 231, 244, 237, 315, 318, 315, 295, 292, 228, 238, 221, 224, 233, 239, 211, 212, 243, 243, 218, 229, 239, 202, 192, 232, 211, 198, 198, 199, 160, 177, 171, 182, 195, 198, 196, 193, 199, 180, 167, 198, 218, 214, 226, 222, 193, 192, 183, 181, 186, 184, 172, 217, 214, 210, 212, 214, 167, 176, 171, 172, 181, 188, 220, 255, 280, 274, 277, 253, 221, 197, 199, 209, 188, 185, 178, 198},
{889, 821, 878, 851, 922, 843, 820, 755, 708, 559, 633, 697, 706, 721, 800, 779, 758, 726, 814, 753, 737, 736, 704, 554, 575, 687, 676, 770, 801, 795, 682, 705, 656, 635, 595, 613, 595, 575, 560, 560, 653, 609, 612, 603, 650, 597, 620, 668, 683, 682, 606, 605, 603, 592, 552, 588, 611, 567, 568, 551, 631, 604, 658, 755, 781, 734, 743, 670, 545, 604, 567, 585, 575, 591, 525, 540, 531, 551, 550, 533, 517, 556, 533, 574, 603, 665, 706, 753, 732, 711, 689, 665, 637, 709, 712, 764, 684, 660, 686, 766},
{951, 1002, 999, 935, 918, 877, 899, 878, 837, 797, 742, 636, 614, 608, 657, 654, 625, 596, 655, 596, 758, 789, 796, 754, 765, 639, 628, 697, 681, 699, 663, 723, 661, 635, 618, 628, 588, 603, 587, 597, 579, 518, 462, 512, 449, 513, 526, 596, 578, 637, 587, 580, 522, 517, 487, 503, 493, 519, 534, 500, 582, 596, 608, 677, 678, 670, 680, 698, 612, 634, 542, 544, 491, 470, 452, 470, 460, 445, 477, 435, 469, 453, 441, 454, 600, 693, 750, 778, 864, 791, 780, 766, 762, 676, 685, 664, 600, 615, 600, 639},
{291, 285, 252, 266, 255, 251, 256, 271, 257, 220, 191, 171, 156, 173, 179, 197, 191, 177, 164, 165, 186, 190, 234, 267, 297, 298, 300, 279, 243, 219, 191, 199, 180, 183, 188, 203, 201, 210, 211, 218, 202, 190, 183, 173, 142, 153, 159, 156, 165, 245, 248, 247, 252, 266, 209, 188, 182, 180, 147, 148, 170, 174, 187, 193, 186, 178, 178, 189, 207, 191, 182, 184, 159, 149, 182, 210, 203, 207, 203, 203, 191, 209, 200, 209, 231, 241, 285, 298, 320, 315, 302, 257, 246, 214, 170, 163, 142, 136, 154, 178},
{96, 95, 91, 97, 100, 98, 96, 99, 95, 76, 74, 68, 64, 61, 63, 70, 70, 72, 78, 76, 74, 80, 92, 93, 101, 103, 98, 93, 91, 85, 75, 79, 67, 72, 70, 69, 68, 70, 65, 64, 64, 66, 64, 60, 58, 59, 58, 66, 71, 88, 90, 92, 92, 94, 87, 84, 80, 77, 68, 68, 65, 62, 60, 68, 60, 65, 66, 69, 71, 71, 66, 74, 73, 67, 71, 78, 73, 77, 75, 76, 75, 76, 68, 65, 64, 66, 71, 76, 83, 84, 78, 76, 71, 65, 62, 65, 58, 61, 72, 70},
{64, 70, 69, 77, 81, 81, 77, 79, 71, 63, 72, 72, 69, 73, 76, 75, 71, 73, 73, 67, 61, 61, 60, 58, 63, 65, 60, 70, 77, 77, 70, 72, 61, 59, 54, 55, 59, 64, 60, 60, 63, 60, 54, 48, 49, 46, 43, 49, 55, 60, 65, 71, 73, 69, 72, 70, 67, 65, 65, 59, 57, 56, 51, 56, 57, 60, 59, 62, 61, 61, 57, 65, 65, 61, 59, 62, 53, 58, 57, 60, 60, 61, 54, 56, 54, 55, 52, 54, 52, 49, 45, 57, 56, 56, 67, 69, 62, 64, 71, 62},
{65, 65, 66, 72, 83, 84, 82, 81, 79, 69, 76, 74, 73, 75, 79, 80, 81, 83, 81, 75, 64, 61, 60, 57, 60, 65, 61, 74, 78, 77, 69, 71, 57, 55, 51, 54, 58, 62, 61, 63, 69, 69, 63, 58, 57, 49, 44, 51, 58, 63, 64, 67, 67, 62, 60, 63, 63, 63, 63, 60, 58, 54, 48, 51, 56, 58, 61, 63, 65, 66, 62, 67, 68, 63, 59, 59, 60, 59, 59, 58, 59, 51, 48, 52, 52, 55, 49, 51, 47, 43, 41, 51, 50, 51, 61, 62, 54, 55, 59, 49}}

// 26 Reading of the 8 sensors, 100 samples per sensor
{{62, 72, 80, 80, 75, 75, 68, 62, 64, 76, 80, 84, 81, 78, 70, 67, 66, 67, 71, 71, 70, 64, 71, 76, 74, 79, 81, 77, 78, 79, 75, 75, 69, 62, 63, 61, 59, 58, 69, 65, 69, 68, 69, 55, 57, 55, 58, 64, 66, 62, 56, 55, 46, 40, 41, 49, 47, 51, 53, 58, 54, 63, 64, 62, 62, 67, 60, 57, 60, 55, 50, 53, 68, 69, 74, 79, 83, 74, 79, 74, 74, 70, 72, 65, 66, 67, 76, 77, 82, 89, 109, 99, 101, 97, 92, 75, 78, 73, 72, 74},
{152, 173, 204, 205, 189, 210, 199, 167, 160, 160, 148, 162, 160, 164, 192, 188, 173, 177, 188, 166, 180, 182, 203, 203, 203, 192, 204, 182, 192, 209, 213, 196, 191, 181, 149, 142, 152, 150, 177, 188, 217, 212, 212, 176, 179, 141, 137, 141, 151, 138, 134, 147, 143, 154, 145, 149, 145, 143, 132, 149, 147, 150, 149, 144, 127, 131, 121, 130, 128, 135, 145, 189, 212, 210, 219, 220, 186, 161, 170, 157, 146, 152, 152, 140, 148, 153, 149, 141, 154, 162, 206, 208, 226, 236, 230, 196, 206, 194, 178, 176},
{663, 682, 655, 682, 554, 574, 575, 595, 560, 616, 636, 741, 806, 815, 820, 816, 712, 750, 820, 817, 802, 821, 800, 766, 722, 779, 751, 694, 743, 764, 654, 679, 623, 569, 589, 630, 619, 625, 645, 602, 714, 691, 702, 615, 625, 543, 533, 538, 626, 611, 547, 598, 555, 489, 468, 447, 371, 440, 436, 490, 514, 585, 586, 582, 592, 590, 535, 490, 505, 474, 453, 559, 619, 608, 619, 617, 507, 464, 463, 467, 529, 638, 641, 693, 667, 717, 679, 696, 706, 699, 674, 659, 663, 640, 694, 636, 596, 585, 635, 599},
{562, 540, 541, 537, 516, 550, 541, 575, 489, 528, 529, 585, 572, 592, 679, 700, 731, 784, 839, 762, 787, 737, 677, 617, 631, 593, 686, 666, 742, 725, 700, 606, 600, 470, 522, 508, 485, 500, 547, 486, 585, 599, 643, 631, 637, 571, 557, 482, 488, 576, 541, 569, 609, 580, 512, 545, 541, 541, 569, 551, 543, 546, 602, 561, 574, 588, 551, 432, 479, 453, 432, 532, 637, 648, 688, 669, 619, 515, 480, 512, 557, 576, 597, 632, 635, 779, 775, 782, 804, 782, 663, 632, 622, 580, 578, 554, 533, 587, 561, 510},
{225, 245, 243, 309, 328, 333, 341, 386, 321, 311, 320, 311, 254, 258, 284, 273, 249, 261, 276, 262, 260, 259, 247, 238, 240, 250, 319, 314, 375, 399, 386, 330, 337, 273, 219, 212, 203, 187, 192, 188, 224, 230, 244, 243, 261, 247, 242, 252, 237, 265, 254, 263, 269, 257, 201, 196, 203, 171, 176, 171, 163, 140, 209, 214, 221, 225, 223, 172, 167, 167, 169, 206, 197, 202, 222, 219, 197, 186, 201, 182, 184, 176, 176, 173, 173, 171, 167, 174, 189, 193, 225, 247, 263, 254, 244, 212, 197, 191, 170, 174},
{80, 95, 89, 93, 98, 95, 90, 109, 98, 98, 104, 108, 90, 93, 97, 90, 79, 85, 86, 82, 88, 86, 84, 82, 81, 92, 101, 101, 117, 119, 104, 93, 91, 74, 72, 72, 73, 72, 73, 67, 73, 72, 75, 69, 75, 77, 81, 87, 88, 90, 86, 91, 83, 81, 70, 67, 64, 63, 64, 65, 61, 57, 58, 57, 58, 57, 54, 53, 57, 59, 62, 71, 78, 78, 85, 85, 88, 79, 84, 76, 79, 65, 69, 67, 69, 77, 87, 92, 91, 94, 107, 103, 103, 100, 95, 82, 77, 75, 78, 83},
{54, 63, 58, 56, 54, 52, 47, 58, 58, 66, 70, 72, 65, 65, 62, 61, 60, 62, 63, 59, 59, 53, 51, 52, 53, 65, 70, 73, 74, 74, 62, 55, 48, 47, 53, 54, 53, 52, 53, 46, 47, 47, 49, 44, 49, 54, 60, 67, 69, 65, 60, 59, 50, 48, 51, 50, 51, 53, 51, 51, 49, 50, 50, 49, 53, 54, 46, 46, 52, 46, 47, 55, 63, 61, 65, 68, 76, 69, 71, 67, 70, 57, 61, 58, 60, 66, 86, 90, 92, 93, 101, 86, 81, 77, 77, 72, 71, 67, 69, 73},
{51, 58, 59, 58, 53, 49, 42, 46, 46, 55, 57, 60, 56, 55, 52, 55, 55, 56, 56, 55, 51, 45, 45, 49, 46, 56, 63, 65, 64, 64, 57, 50, 45, 43, 50, 50, 48, 46, 48, 39, 40, 42, 43, 41, 43, 48, 54, 63, 63, 60, 54, 48, 33, 29, 31, 34, 40, 43, 45, 51, 50, 56, 58, 57, 58, 59, 50, 50, 57, 53, 54, 53, 59, 56, 59, 61, 70, 63, 65, 62, 65, 57, 59, 57, 58, 61, 74, 79, 80, 79, 86, 74, 71, 68, 70, 68, 67, 63, 64, 65}}

// 27 Reading of the 8 sensors, 100 samples per sensor
{{117, 113, 120, 122, 99, 100, 89, 79, 85, 85, 81, 85, 86, 87, 103, 130, 131, 131, 139, 131, 106, 104, 105, 100, 110, 109, 114, 121, 107, 92, 108, 99, 88, 89, 86, 57, 62, 64, 63, 62, 63, 63, 62, 62, 66, 77, 79, 75, 74, 85, 77, 87, 92, 98, 91, 89, 80, 75, 81, 77, 81, 78, 86, 82, 80, 81, 79, 71, 63, 64, 58, 61, 67, 64, 66, 63, 62, 55, 58, 60, 69, 75, 71, 70, 73, 64, 54, 71, 72, 64, 73, 76, 62, 64, 64, 61, 58, 56, 56, 58},
{274, 227, 232, 217, 175, 162, 169, 149, 173, 178, 183, 188, 203, 201, 245, 320, 330, 326, 361, 346, 292, 288, 292, 261, 263, 241, 242, 248, 219, 204, 255, 246, 236, 243, 237, 199, 191, 179, 174, 158, 136, 142, 158, 148, 154, 167, 165, 150, 164, 187, 174, 176, 197, 193, 171, 168, 169, 144, 170, 180, 189, 175, 183, 165, 148, 149, 159, 157, 145, 159, 147, 158, 150, 153, 142, 148, 128, 141, 146, 144, 161, 169, 160, 149, 154, 138, 150, 184, 189, 180, 189, 187, 151, 154, 163, 153, 141, 139, 141, 142},
{871, 778, 704, 679, 585, 506, 537, 558, 613, 691, 683, 707, 743, 739, 791, 914, 942, 916, 997, 968, 911, 872, 878, 825, 742, 684, 655, 633, 567, 579, 708, 732, 755, 806, 806, 691, 695, 682, 582, 563, 542, 479, 467, 451, 429, 467, 503, 494, 500, 562, 560, 558, 656, 694, 681, 702, 728, 629, 651, 651, 637, 584, 653, 597, 560, 571, 577, 505, 527, 503, 477, 476, 478, 487, 505, 529, 529, 570, 556, 590, 649, 627, 585, 566, 529, 501, 543, 539, 547, 536, 575, 542, 541, 524, 514, 354, 380, 354, 383, 418},
{943, 914, 831, 824, 753, 612, 578, 546, 570, 590, 618, 645, 727, 777, 820, 893, 965, 905, 952, 981, 921, 817, 844, 719, 652, 658, 678, 645, 611, 565, 527, 505, 492, 513, 665, 712, 730, 737, 746, 629, 523, 474, 424, 415, 366, 389, 433, 443, 470, 498, 540, 580, 631, 644, 649, 625, 568, 521, 483, 535, 513, 478, 520, 480, 454, 486, 510, 435, 481, 424, 374, 382, 437, 413, 451, 554, 554, 532, 542, 535, 494, 493, 476, 427, 416, 413, 371, 370, 387, 362, 343, 382, 379, 382, 375, 323, 302, 312, 319, 424},
{183, 169, 180, 180, 163, 157, 159, 138, 137, 157, 143, 157, 173, 189, 190, 221, 209, 208, 196, 184, 145, 150, 161, 170, 180, 194, 190, 177, 168, 152, 143, 146, 139, 130, 146, 141, 137, 137, 140, 146, 136, 136, 131, 122, 94, 116, 117, 122, 132, 130, 122, 130, 127, 121, 122, 123, 108, 114, 119, 132, 120, 115, 112, 106, 88, 94, 93, 86, 96, 91, 88, 86, 89, 77, 76, 89, 92, 89, 88, 103, 102, 119, 122, 120, 110, 105, 82, 79, 84, 104, 138, 142, 144, 141, 126, 88, 87, 90, 87, 86},
{95, 100, 104, 107, 93, 100, 93, 84, 84, 83, 70, 74, 76, 77, 83, 99, 93, 94, 88, 82, 67, 68, 70, 76, 89, 91, 90, 92, 86, 71, 69, 66, 60, 56, 55, 52, 53, 53, 53, 55, 53, 52, 48, 46, 51, 59, 61, 60, 60, 60, 56, 64, 68, 73, 76, 75, 66, 67, 68, 60, 60, 62, 63, 60, 58, 57, 53, 48, 47, 47, 45, 44, 50, 44, 46, 45, 45, 40, 44, 57, 60, 63, 61, 62, 53, 49, 47, 53, 50, 49, 70, 69, 68, 69, 68, 52, 53, 52, 49, 52},
{101, 111, 113, 113, 97, 101, 86, 77, 76, 77, 65, 73, 76, 77, 83, 90, 84, 82, 81, 77, 69, 65, 64, 70, 81, 85, 90, 95, 83, 68, 70, 63, 57, 57, 57, 51, 57, 55, 54, 55, 50, 46, 44, 46, 51, 59, 59, 58, 57, 59, 57, 71, 77, 80, 83, 82, 70, 69, 71, 62, 60, 62, 64, 62, 63, 64, 59, 52, 48, 46, 44, 46, 50, 46, 48, 44, 45, 38, 41, 48, 53, 58, 56, 58, 58, 54, 46, 52, 50, 43, 63, 64, 62, 66, 64, 53, 52, 50, 46, 50},
{91, 100, 106, 108, 92, 96, 81, 68, 69, 68, 61, 66, 68, 67, 73, 83, 78, 83, 86, 86, 77, 74, 69, 70, 80, 82, 86, 94, 86, 71, 76, 69, 57, 60, 59, 48, 54, 55, 51, 53, 51, 47, 44, 44, 49, 56, 57, 54, 55, 57, 57, 71, 75, 78, 79, 76, 64, 62, 66, 59, 59, 59, 65, 62, 63, 66, 65, 56, 51, 49, 44, 43, 48, 47, 48, 44, 43, 35, 39, 48, 57, 62, 62, 60, 59, 50, 43, 54, 52, 45, 58, 60, 53, 54, 53, 43, 40, 38, 39, 43}}

// 28 Reading of the 8 sensors, 100 samples per sensor
{{87, 88, 92, 89, 93, 100, 98, 99, 108, 103, 90, 84, 86, 80, 75, 71, 71, 68, 62, 74, 75, 73, 72, 76, 70, 64, 68, 69, 80, 76, 82, 85, 87, 75, 72, 67, 61, 62, 65, 66, 70, 68, 60, 65, 74, 69, 76, 77, 68, 60, 62, 52, 50, 53, 58, 64, 69, 67, 70, 70, 69, 64, 64, 65, 62, 55, 64, 67, 64, 60, 63, 55, 53, 52, 53, 46, 49, 47, 54, 53, 57, 56, 66, 62, 65, 63, 70, 59, 54, 55, 60, 51, 52, 53, 55, 47, 52, 53, 52, 47},
{238, 238, 226, 220, 219, 243, 241, 249, 263, 240, 236, 227, 216, 202, 226, 191, 181, 194, 189, 176, 167, 184, 174, 177, 204, 205, 191, 189, 211, 169, 164, 165, 170, 141, 160, 173, 192, 198, 211, 197, 197, 178, 175, 187, 212, 210, 241, 229, 204, 187, 183, 127, 154, 159, 161, 169, 182, 162, 174, 168, 174, 176, 179, 180, 180, 168, 174, 179, 177, 174, 169, 153, 144, 121, 116, 113, 132, 130, 142, 145, 157, 156, 176, 179, 184, 188, 186, 171, 163, 157, 141, 131, 135, 132, 132, 129, 126, 118, 124, 117},
{627, 650, 614, 579, 577, 691, 678, 777, 900, 887, 884, 893, 872, 743, 753, 649, 630, 649, 637, 579, 557, 578, 468, 500, 577, 570, 620, 618, 653, 639, 677, 640, 709, 660, 618, 575, 600, 543, 601, 643, 749, 704, 704, 738, 776, 711, 751, 712, 630, 609, 635, 600, 633, 643, 609, 608, 621, 593, 620, 637, 582, 560, 595, 631, 601, 647, 647, 628, 683, 685, 620, 591, 593, 423, 386, 395, 479, 484, 488, 520, 603, 589, 600, 601, 570, 543, 505, 472, 507, 519, 466, 497, 512, 480, 463, 520, 477, 444, 421, 447},
{574, 604, 700, 703, 744, 742, 682, 625, 702, 717, 745, 737, 766, 699, 723, 698, 734, 707, 678, 636, 586, 551, 479, 472, 463, 467, 609, 652, 675, 644, 659, 568, 541, 510, 504, 481, 490, 519, 558, 637, 657, 596, 581, 541, 458, 435, 445, 385, 419, 501, 520, 543, 602, 621, 639, 647, 654, 618, 598, 525, 535, 547, 594, 603, 578, 567, 543, 490, 505, 502, 465, 460, 478, 490, 511, 518, 532, 560, 543, 542, 622, 594, 563, 542, 555, 485, 459, 465, 465, 438, 488, 533, 513, 527, 498, 421, 384, 406, 381, 395},
{187, 195, 254, 252, 246, 246, 262, 220, 214, 229, 236, 221, 230, 209, 193, 193, 174, 144, 152, 187, 175, 177, 190, 207, 187, 189, 188, 200, 181, 181, 198, 223, 215, 214, 195, 171, 156, 143, 150, 192, 234, 224, 231, 228, 204, 155, 163, 153, 145, 199, 205, 211, 229, 237, 220, 220, 212, 198, 216, 207, 237, 235, 239, 235, 218, 191, 195, 173, 161, 158, 158, 152, 162, 167, 158, 141, 136, 162, 168, 170, 180, 213, 192, 183, 196, 194, 168, 185, 174, 159, 192, 184, 171, 181, 183, 140, 168, 163, 166, 196},
{70, 78, 84, 77, 76, 78, 81, 77, 83, 85, 84, 82, 88, 87, 86, 84, 81, 73, 67, 66, 65, 56, 59, 56, 54, 53, 57, 63, 66, 70, 83, 87, 87, 83, 79, 67, 70, 68, 72, 75, 90, 84, 78, 80, 81, 63, 64, 70, 63, 71, 74, 73, 66, 69, 62, 62, 63, 62, 68, 76, 81, 78, 79, 74, 62, 51, 62, 58, 63, 65, 69, 59, 63, 58, 54, 52, 56, 54, 61, 60, 57, 64, 67, 59, 62, 65, 56, 54, 52, 52, 57, 61, 61, 64, 63, 54, 67, 68, 68, 73},
{61, 65, 65, 59, 58, 61, 61, 61, 69, 70, 66, 64, 68, 70, 67, 67, 69, 65, 58, 66, 65, 55, 54, 52, 42, 42, 48, 53, 58, 57, 69, 71, 72, 68, 67, 54, 52, 48, 49, 51, 57, 54, 50, 56, 57, 50, 52, 56, 49, 47, 51, 51, 49, 51, 55, 56, 55, 53, 56, 57, 57, 55, 58, 56, 48, 44, 54, 52, 52, 51, 52, 42, 46, 44, 45, 44, 48, 43, 49, 48, 47, 43, 49, 43, 45, 49, 49, 43, 41, 42, 41, 43, 43, 46, 44, 42, 47, 48, 45, 46},
{65, 66, 68, 64, 65, 69, 70, 69, 75, 74, 62, 58, 62, 65, 63, 67, 69, 63, 58, 68, 66, 61, 61, 62, 52, 50, 56, 62, 60, 59, 68, 67, 67, 62, 61, 51, 49, 46, 49, 49, 50, 49, 43, 45, 48, 46, 48, 52, 46, 46, 51, 49, 49, 50, 53, 52, 53, 50, 50, 51, 49, 47, 47, 48, 44, 41, 46, 47, 46, 44, 44, 39, 41, 39, 41, 40, 43, 38, 42, 42, 41, 40, 45, 42, 44, 47, 51, 47, 44, 44, 43, 38, 40, 42, 41, 39, 43, 44, 43, 44}}

// 29 Reading of the 8 sensors, 100 samples per sensor
{{122, 120, 110, 112, 92, 95, 96, 94, 113, 111, 105, 107, 116, 99, 96, 89, 92, 90, 85, 99, 104, 95, 93, 91, 74, 65, 69, 71, 67, 75, 74, 72, 72, 74, 73, 77, 82, 79, 80, 72, 73, 71, 70, 66, 67, 67, 66, 72, 72, 79, 77, 73, 68, 67, 64, 65, 67, 68, 77, 78, 73, 72, 72, 61, 54, 63, 64, 61, 66, 66, 64, 70, 77, 76, 75, 71, 66, 62, 68, 70, 81, 80, 81, 77, 78, 75, 74, 68, 72, 79, 72, 78, 81, 75, 68, 69, 74, 76, 78, 76},
{252, 265, 255, 252, 232, 244, 229, 225, 320, 311, 300, 307, 328, 258, 246, 237, 262, 255, 217, 232, 262, 229, 220, 221, 205, 170, 166, 170, 163, 183, 170, 177, 182, 195, 181, 194, 194, 178, 199, 197, 197, 193, 198, 163, 162, 159, 153, 157, 169, 179, 173, 169, 148, 145, 146, 164, 178, 185, 199, 198, 194, 189, 190, 174, 153, 140, 139, 156, 150, 168, 172, 172, 178, 192, 184, 180, 183, 163, 159, 158, 174, 174, 177, 170, 179, 173, 166, 162, 173, 200, 203, 213, 217, 204, 180, 163, 152, 132, 130, 114},
{907, 950, 903, 924, 920, 847, 824, 799, 879, 866, 915, 850, 894, 932, 893, 823, 868, 830, 645, 672, 820, 798, 809, 784, 781, 670, 634, 647, 661, 639, 575, 594, 606, 644, 655, 685, 691, 652, 634, 638, 638, 668, 669, 683, 702, 703, 660, 693, 701, 697, 707, 724, 683, 637, 630, 624, 658, 660, 660, 613, 574, 484, 468, 591, 570, 579, 602, 637, 549, 575, 574, 605, 632, 700, 744, 748, 693, 687, 658, 614, 618, 629, 612, 541, 567, 563, 599, 627, 674, 635, 618, 609, 542, 521, 537, 543, 535, 540, 486, 531},
{728, 735, 744, 856, 910, 910, 917, 868, 741, 715, 694, 627, 739, 734, 663, 671, 696, 607, 648, 726, 769, 760, 754, 685, 660, 594, 546, 570, 563, 503, 600, 623, 570, 591, 578, 509, 518, 608, 638, 647, 596, 607, 527, 588, 604, 612, 629, 637, 531, 502, 569, 574, 584, 588, 577, 506, 414, 468, 465, 449, 453, 536, 457, 525, 583, 623, 555, 601, 546, 523, 485, 551, 524, 552, 618, 606, 574, 663, 718, 700, 759, 749, 674, 606, 531, 504, 523, 523, 517, 552, 533, 559, 543, 522, 544, 488, 452, 457, 478, 432},
{203, 199, 202, 191, 232, 222, 219, 233, 257, 217, 224, 231, 237, 228, 246, 248, 248, 242, 234, 239, 234, 243, 234, 237, 215, 215, 189, 171, 162, 156, 147, 181, 210, 240, 242, 248, 245, 244, 218, 209, 208, 181, 140, 166, 161, 159, 189, 199, 180, 190, 227, 205, 212, 204, 204, 161, 164, 146, 157, 156, 160, 173, 179, 172, 177, 182, 176, 165, 155, 157, 149, 166, 196, 203, 215, 222, 224, 200, 211, 195, 204, 192, 207, 204, 202, 190, 184, 170, 149, 148, 162, 162, 155, 167, 191, 176, 183, 201, 230, 221},
{98, 98, 94, 90, 93, 90, 93, 92, 92, 85, 80, 78, 82, 84, 92, 91, 96, 92, 86, 86, 89, 86, 82, 89, 90, 82, 80, 85, 77, 66, 70, 71, 70, 78, 84, 86, 85, 80, 73, 69, 70, 66, 64, 69, 61, 62, 70, 72, 71, 77, 78, 71, 77, 76, 77, 69, 68, 62, 65, 65, 71, 76, 73, 68, 69, 67, 59, 57, 61, 62, 59, 68, 82, 82, 77, 83, 80, 69, 71, 70, 71, 69, 72, 73, 78, 78, 76, 73, 69, 64, 62, 61, 60, 58, 69, 69, 82, 91, 99, 98},
{92, 89, 81, 81, 71, 71, 75, 72, 73, 76, 67, 62, 72, 71, 74, 73, 78, 70, 69, 79, 79, 76, 77, 76, 72, 68, 70, 72, 66, 57, 60, 56, 54, 56, 58, 62, 64, 65, 63, 59, 58, 58, 54, 59, 56, 59, 60, 62, 64, 66, 60, 58, 63, 62, 66, 64, 63, 55, 53, 51, 50, 56, 54, 52, 50, 52, 46, 47, 53, 57, 57, 69, 78, 76, 71, 74, 64, 61, 64, 67, 68, 69, 65, 63, 63, 61, 58, 56, 52, 52, 47, 48, 50, 49, 50, 53, 69, 75, 77, 81},
{94, 94, 87, 89, 74, 68, 70, 69, 71, 73, 68, 64, 68, 67, 69, 67, 69, 65, 59, 68, 68, 67, 67, 70, 61, 58, 61, 66, 62, 58, 60, 54, 51, 52, 54, 55, 57, 55, 53, 51, 53, 57, 55, 60, 58, 64, 61, 65, 65, 68, 62, 59, 58, 58, 60, 54, 54, 51, 47, 47, 46, 48, 45, 42, 41, 45, 43, 44, 52, 53, 55, 64, 72, 69, 66, 65, 57, 62, 69, 71, 75, 75, 65, 54, 53, 50, 50, 47, 50, 51, 45, 46, 49, 47, 46, 49, 58, 65, 66, 67}}

// 30 Reading of the 8 sensors, 100 samples per sensor
{{109, 102, 90, 101, 94, 103, 108, 103, 94, 94, 94, 90, 93, 90, 101, 108, 105, 110, 111, 101, 85, 100, 101, 100, 102, 100, 84, 66, 66, 61, 61, 71, 75, 85, 92, 97, 97, 97, 91, 89, 90, 83, 84, 83, 85, 84, 94, 90, 86, 79, 76, 66, 71, 77, 80, 76, 79, 77, 72, 67, 72, 64, 71, 70, 71, 68, 73, 67, 68, 65, 69, 70, 77, 80, 85, 87, 80, 72, 76, 70, 63, 69, 73, 66, 66, 72, 67, 64, 71, 72, 67, 70, 73, 69, 82, 82, 86, 87, 85, 70},
{320, 284, 285, 323, 275, 295, 318, 301, 256, 250, 244, 236, 244, 231, 239, 241, 254, 273, 275, 271, 287, 305, 281, 297, 301, 284, 240, 224, 217, 261, 256, 259, 267, 261, 231, 235, 234, 226, 238, 216, 223, 217, 240, 230, 242, 246, 263, 238, 250, 251, 242, 233, 238, 225, 229, 224, 256, 265, 251, 231, 214, 167, 213, 215, 234, 257, 261, 218, 226, 209, 190, 174, 208, 233, 231, 237, 239, 210, 205, 213, 198, 201, 222, 194, 185, 204, 198, 183, 201, 225, 222, 259, 253, 249, 255, 248, 219, 210, 211, 185},
{718, 713, 789, 843, 854, 875, 942, 913, 874, 817, 878, 890, 860, 809, 897, 872, 775, 739, 738, 635, 615, 635, 681, 693, 720, 709, 673, 606, 701, 681, 669, 670, 693, 630, 687, 663, 740, 737, 720, 633, 690, 601, 592, 633, 732, 748, 810, 817, 804, 790, 781, 732, 732, 683, 622, 573, 585, 544, 555, 541, 497, 450, 536, 532, 555, 576, 647, 573, 594, 598, 640, 598, 654, 659, 621, 633, 615, 579, 589, 628, 650, 655, 703, 658, 630, 551, 561, 576, 585, 564, 537, 568, 553, 559, 597, 671, 640, 650, 679, 679},
{992, 908, 864, 875, 869, 867, 865, 862, 839, 817, 882, 906, 904, 894, 980, 958, 901, 881, 854, 754, 766, 863, 834, 828, 764, 682, 555, 637, 728, 805, 812, 803, 743, 727, 664, 695, 680, 665, 587, 558, 484, 591, 661, 673, 684, 740, 691, 622, 596, 583, 562, 528, 535, 545, 572, 491, 475, 443, 452, 392, 410, 395, 399, 420, 524, 523, 536, 548, 580, 524, 526, 581, 565, 514, 519, 533, 541, 564, 550, 569, 577, 520, 616, 612, 602, 581, 586, 537, 553, 567, 631, 619, 632, 625, 601, 574, 590, 566, 609, 588},
{511, 474, 474, 480, 453, 442, 469, 437, 395, 361, 402, 379, 391, 393, 409, 398, 406, 446, 450, 428, 432, 431, 387, 370, 357, 325, 357, 392, 391, 416, 405, 339, 272, 283, 328, 358, 355, 359, 366, 323, 267, 313, 323, 299, 302, 352, 325, 304, 292, 257, 233, 227, 237, 241, 264, 218, 199, 247, 245, 227, 241, 257, 211, 211, 257, 267, 281, 294, 349, 341, 323, 308, 290, 224, 207, 212, 200, 216, 223, 215, 222, 254, 242, 243, 240, 249, 220, 219, 240, 233, 247, 256, 268, 275, 273, 260, 259, 251, 229, 237},
{173, 157, 159, 149, 132, 129, 136, 127, 111, 106, 131, 124, 120, 121, 141, 124, 136, 150, 158, 145, 142, 133, 123, 119, 113, 117, 128, 129, 120, 118, 111, 92, 81, 99, 124, 129, 131, 129, 123, 110, 100, 96, 106, 101, 96, 107, 117, 108, 105, 98, 94, 85, 91, 89, 91, 80, 70, 76, 77, 79, 85, 87, 76, 74, 87, 94, 100, 103, 115, 102, 98, 96, 94, 79, 87, 82, 74, 77, 80, 70, 70, 76, 71, 72, 70, 72, 66, 63, 62, 66, 78, 90, 93, 96, 94, 87, 76, 77, 73, 72}
 {107, 93, 87, 84, 73, 74, 76, 76, 73, 72, 82, 77, 74, 74, 94, 91, 90, 96, 100, 93, 91, 94, 92, 93, 86, 83, 85, 77, 70, 67, 64, 59, 57, 78, 89, 90, 89, 88, 74, 73, 73, 69, 78, 79, 73, 75, 84, 75, 75, 72, 71, 65, 74, 70, 67, 62, 58, 48, 50, 55, 58, 57, 58, 53, 59, 61, 64, 63, 66, 57, 59, 64, 68, 65, 72, 70, 61, 57, 58, 51, 45, 47, 49, 54, 49, 53, 56, 51, 51, 55, 58, 64, 65, 63, 67, 66, 64, 66, 68, 65},
{83, 74, 68, 70, 62, 70, 73, 74, 74, 72, 70, 66, 63, 61, 78, 80, 77, 84, 87, 77, 75, 80, 79, 78, 76, 72, 70, 58, 55, 49, 49, 48, 50, 62, 69, 71, 73, 72, 65, 65, 65, 59, 62, 63, 61, 63, 71, 66, 64, 58, 52, 46, 55, 51, 50, 51, 50, 40, 44, 46, 53, 51, 52, 49, 53, 49, 52, 52, 54, 50, 51, 54, 61, 60, 64, 67, 61, 54, 54, 49, 42, 44, 45, 48, 44, 47, 50, 48, 49, 51, 49, 47, 48, 46, 57, 57, 64, 67, 69, 59}}

// 31 Reading of the 8 sensors, 100 samples per sensor
{{127, 124, 105, 101, 95, 108, 101, 99, 103, 101, 100, 122, 132, 140, 136, 139, 125, 114, 106, 117, 114, 117, 132, 134, 126, 126, 119, 106, 110, 115, 105, 115, 114, 110, 112, 124, 119, 118, 112, 104, 119, 121, 129, 128, 134, 109, 102, 102, 120, 125, 147, 150, 146, 162, 179, 169, 190, 194, 180, 156, 146, 123, 124, 109, 104, 112, 99, 88, 89, 105, 101, 104, 106, 106, 95, 103, 110, 122, 121, 122, 123, 124, 144, 151, 154, 148, 155, 127, 124, 117, 122, 113, 109, 104, 101, 98, 90, 96, 109, 112},
{354, 306, 289, 280, 275, 302, 299, 272, 279, 268, 246, 297, 325, 377, 383, 414, 385, 366, 378, 402, 427, 430, 456, 423, 391, 357, 348, 335, 311, 339, 324, 337, 368, 369, 356, 356, 347, 309, 307, 286, 298, 302, 290, 274, 273, 247, 224, 279, 305, 324, 329, 346, 303, 359, 375, 386, 434, 467, 481, 459, 432, 377, 354, 290, 276, 312, 303, 289, 240, 303, 289, 296, 282, 305, 270, 274, 271, 284, 271, 260, 245, 245, 267, 304, 311, 313, 336, 308, 279, 261, 272, 267, 269, 268, 272, 248, 228, 242, 241, 240},
{803, 773, 882, 966, 910, 923, 968, 874, 856, 913, 1003, 961, 1038, 1059, 1072, 1007, 1003, 869, 898, 855, 854, 897, 975, 870, 918, 947, 926, 843, 848, 803, 700, 680, 693, 751, 702, 760, 834, 890, 856, 874, 926, 821, 779, 765, 767, 641, 663, 683, 698, 708, 813, 823, 820, 1041, 1058, 1037, 1075, 1094, 900, 866, 817, 804, 799, 790, 791, 792, 761, 756, 749, 762, 789, 742, 708, 680, 707, 689, 759, 741, 742, 680, 738, 752, 833, 882, 902, 842, 823, 814, 812, 825, 845, 846, 829, 766, 800, 754, 734, 674, 717, 648},
{872, 962, 841, 888, 852, 963, 907, 948, 887, 1013, 983, 981, 986, 936, 857, 795, 785, 731, 839, 819, 862, 837, 853, 772, 782, 747, 772, 788, 828, 855, 786, 771, 811, 768, 797, 846, 852, 876, 886, 807, 860, 821, 765, 747, 739, 718, 815, 808, 829, 822, 779, 753, 786, 861, 918, 981, 943, 995, 966, 900, 872, 941, 847, 803, 901, 938, 858, 915, 973, 921, 883, 900, 917, 827, 833, 764, 745, 667, 664, 621, 762, 820, 819, 898, 933, 843, 862, 852, 882, 831, 836, 868, 906, 834, 956, 947, 918, 857, 843, 800},
{467, 503, 514, 552, 522, 574, 578, 586, 532, 554, 498, 487, 498, 501, 475, 438, 438, 388, 385, 399, 405, 328, 340, 347, 371, 389, 425, 446, 461, 444, 428, 400, 348, 355, 361, 394, 398, 434, 395, 388, 402, 376, 354, 372, 371, 350, 410, 389, 391, 391, 371, 344, 429, 580, 662, 707, 752, 775, 681, 625, 588, 552, 502, 567, 572, 617, 588, 649, 580, 554, 499, 512, 426, 414, 460, 472, 501, 508, 541, 484, 518, 508, 607, 611, 634, 651, 658, 535, 545, 588, 528, 540, 600, 588, 564, 582, 591, 576, 539, 531},
{179, 182, 170, 165, 145, 137, 139, 149, 138, 145, 148, 144, 149, 157, 150, 140, 153, 134, 133, 144, 146, 118, 127, 122, 121, 118, 127, 127, 148, 139, 146, 151, 147, 140, 145, 149, 140, 150, 133, 128, 140, 132, 126, 133, 144, 124, 135, 130, 132, 126, 133, 130, 144, 196, 221, 228, 244, 250, 217, 207, 206, 195, 190, 229, 223, 232, 225, 257, 219, 213, 189, 194, 148, 135, 154, 169, 182, 186, 209, 191, 203, 207, 252, 248, 250, 243, 236, 181, 181, 189, 173, 177, 175, 166, 158, 173, 173, 194, 189, 210},
{115, 111, 94, 87, 82, 82, 76, 84, 83, 88, 96, 103, 110, 117, 112, 105, 104, 94, 90, 88, 89, 85, 95, 94, 94, 93, 90, 82, 95, 90, 92, 102, 99, 92, 104, 106, 101, 105, 99, 89, 98, 90, 97, 99, 113, 97, 102, 96, 99, 88, 107, 103, 104, 114, 126, 121, 131, 138, 130, 122, 119, 120, 117, 126, 120, 118, 106, 118, 106, 111, 105, 111, 98, 95, 100, 112, 120, 133, 146, 141, 147, 152, 175, 172, 170, 159, 153, 121, 121, 127, 126, 126, 110, 104, 96, 103, 95, 107, 108, 122},
{96, 94, 80, 74, 71, 78, 74, 77, 80, 79, 87, 95, 101, 104, 100, 93, 89, 81, 78, 79, 85, 82, 89, 93, 92, 85, 84, 77, 82, 80, 78, 89, 87, 81, 88, 92, 83, 86, 84, 77, 88, 86, 91, 91, 99, 82, 82, 79, 86, 83, 101, 101, 100, 104, 116, 109, 122, 126, 117, 104, 97, 89, 87, 91, 87, 89, 77, 81, 80, 86, 83, 89, 89, 85, 85, 91, 96, 106, 113, 112, 117, 121, 138, 137, 137, 128, 125, 101, 103, 102, 106, 101, 91, 82, 79, 80, 77, 82, 89, 96}}

// 32 Reading of the 8 sensors, 100 samples per sensor
{{98, 98, 95, 92, 75, 72, 74, 70, 73, 71, 73, 72, 93, 100, 109, 112, 126, 125, 118, 114, 122, 136, 127, 132, 128, 126, 96, 95, 88, 102, 101, 102, 98, 98, 96, 92, 90, 103, 101, 90, 83, 89, 87, 94, 99, 99, 93, 93, 89, 82, 88, 90, 84, 87, 88, 83, 80, 79, 76, 77, 77, 77, 74, 70, 66, 63, 61, 50, 51, 57, 72, 71, 73, 76, 77, 65, 62, 68, 64, 63, 64, 76, 70, 75, 71, 66, 56, 65, 72, 73, 82, 99, 94, 88, 95, 95, 78, 82, 79, 90},
{281, 281, 281, 293, 251, 238, 243, 246, 249, 245, 248, 245, 279, 279, 312, 326, 335, 329, 314, 314, 322, 368, 345, 343, 328, 307, 252, 249, 250, 265, 257, 263, 276, 294, 306, 321, 308, 309, 305, 268, 253, 266, 270, 258, 304, 299, 311, 358, 373, 342, 374, 349, 277, 255, 265, 221, 219, 235, 229, 220, 220, 220, 256, 268, 251, 246, 248, 223, 215, 248, 262, 268, 251, 266, 246, 233, 220, 248, 243, 242, 241, 261, 223, 207, 191, 182, 149, 185, 219, 236, 259, 282, 262, 231, 227, 228, 203, 220, 237, 269},
{903, 893, 863, 866, 732, 697, 717, 749, 778, 797, 756, 759, 765, 818, 887, 946, 935, 976, 956, 898, 924, 940, 913, 896, 908, 858, 819, 796, 793, 812, 774, 826, 811, 804, 859, 911, 826, 778, 780, 654, 570, 663, 804, 765, 784, 842, 812, 730, 775, 768, 812, 812, 809, 807, 821, 729, 757, 736, 686, 643, 638, 607, 667, 670, 641, 683, 646, 562, 553, 696, 718, 789, 819, 896, 798, 747, 674, 676, 557, 612, 582, 584, 536, 590, 572, 540, 539, 587, 580, 596, 642, 706, 654, 628, 603, 602, 530, 649, 656, 712},
{760, 749, 708, 675, 594, 537, 547, 497, 498, 556, 656, 711, 775, 820, 817, 759, 738, 729, 706, 732, 812, 813, 778, 796, 798, 729, 701, 695, 683, 624, 680, 695, 700, 659, 702, 658, 665, 663, 631, 554, 532, 561, 693, 776, 778, 806, 769, 687, 702, 746, 801, 804, 788, 703, 678, 587, 568, 511, 493, 485, 443, 544, 567, 559, 536, 508, 404, 380, 408, 450, 502, 531, 607, 634, 621, 593, 604, 534, 520, 521, 533, 511, 514, 520, 489, 490, 501, 528, 482, 531, 519, 509, 514, 526, 462, 468, 432, 421, 451, 470},
{262, 269, 291, 312, 316, 309, 291, 276, 254, 229, 216, 220, 191, 201, 192, 196, 184, 194, 183, 263, 267, 306, 384, 433, 409, 422, 404, 331, 259, 233, 207, 206, 208, 200, 193, 199, 203, 211, 237, 254, 245, 242, 235, 239, 230, 242, 223, 246, 235, 221, 218, 227, 229, 231, 240, 229, 227, 213, 191, 184, 198, 228, 215, 221, 228, 218, 218, 214, 212, 200, 195, 194, 215, 216, 225, 238, 229, 208, 206, 187, 209, 201, 199, 205, 209, 193, 215, 227, 223, 235, 230, 195, 181, 191, 178, 167, 171, 169, 162, 166},
{94, 97, 96, 101, 97, 90, 87, 86, 82, 80, 81, 80, 83, 86, 83, 80, 85, 85, 82, 107, 112, 124, 141, 166, 154, 153, 141, 119, 80, 86, 98, 98, 98, 98, 90, 76, 70, 66, 70, 71, 70, 77, 89, 99, 102, 103, 96, 92, 78, 71, 68, 83, 80, 85, 92, 90, 80, 87, 81, 76, 84, 84, 72, 73, 71, 61, 64, 64, 64, 70, 71, 77, 76, 75, 69, 68, 66, 67, 69, 70, 80, 78, 81, 83, 80, 71, 75, 78, 77, 79, 83, 82, 78, 114, 129, 126, 124, 125, 91, 75},
