EMG data generated by the Myo Armband in response to different hand gestures used to control a prosthesis.
EMG data of the Myo Armband for the hand gesture that generates the palmar grasp in the prosthesis.

// 1 Reading of the 8 sensors, 100 samples per sensor
{{100, 104, 96, 99, 100, 117, 119, 125, 133, 134, 99, 94, 111, 135, 165, 166, 174, 179, 169, 149, 165, 175, 165, 166, 157, 151, 137, 137, 146, 145, 147, 176, 174, 200, 207, 206, 199, 206, 170, 175, 200, 226, 300, 368, 369, 365, 361, 311, 245, 242, 228, 204, 189, 172, 200, 220, 229, 246, 245, 252, 291, 275, 258, 261, 266, 273, 289, 335, 345, 317, 284, 291, 246, 241, 240, 239, 225, 221, 224, 228, 205, 212, 203, 290, 297, 296, 308, 316, 253, 240, 262, 290, 302, 304, 312, 312, 281, 268, 244, 254},
{78, 82, 83, 87, 89, 85, 82, 92, 95, 100, 97, 96, 93, 115, 106, 106, 113, 109, 77, 81, 89, 84, 89, 98, 106, 111, 115, 124, 141, 161, 156, 152, 140, 120, 88, 90, 102, 101, 110, 108, 110, 105, 109, 104, 101, 116, 107, 112, 118, 119, 111, 115, 111, 101, 106, 98, 94, 104, 104, 104, 110, 113, 113, 109, 107, 105, 107, 100, 119, 123, 153, 165, 171, 162, 161, 127, 113, 94, 99, 109, 108, 117, 124, 123, 111, 117, 108, 106, 109, 105, 107, 106, 101, 99, 99, 124, 123, 121, 119, 117},
{206, 220, 251, 274, 272, 291, 334, 393, 408, 440, 439, 425, 403, 407, 364, 399, 415, 366, 327, 355, 325, 321, 355, 415, 427, 456, 455, 456, 497, 518, 498, 480, 480, 416, 402, 394, 443, 434, 426, 379, 377, 340, 345, 340, 406, 415, 394, 407, 410, 348, 338, 345, 320, 292, 327, 313, 325, 336, 353, 360, 365, 359, 352, 343, 332, 336, 358, 363, 369, 359, 442, 438, 415, 427, 421, 311, 330, 342, 353, 362, 398, 405, 408, 415, 433, 428, 374, 406, 372, 335, 306, 313, 247, 299, 288, 326, 361, 373, 330, 349},
{401, 388, 322, 362, 371, 384, 377, 389, 348, 363, 361, 374, 336, 325, 321, 364, 412, 411, 399, 392, 321, 235, 248, 262, 299, 337, 366, 369, 456, 487, 472, 453, 463, 414, 358, 372, 377, 397, 372, 374, 377, 489, 484, 471, 555, 562, 469, 465, 482, 396, 371, 397, 464, 473, 454, 484, 467, 369, 343, 373, 365, 371, 421, 418, 401, 401, 413, 373, 366, 340, 379, 370, 398, 464, 497, 435, 426, 407, 370, 320, 334, 367, 374, 372, 398, 415, 374, 347, 303, 293, 261, 292, 309, 325, 309, 307, 307, 307, 283, 304},
{110, 115, 98, 109, 106, 92, 85, 98, 73, 77, 85, 89, 78, 84, 78, 72, 75, 71, 67, 73, 69, 61, 83, 90, 105, 108, 114, 100, 97, 84, 92, 86, 88, 93, 88, 75, 73, 88, 89, 100, 106, 118, 107, 101, 102, 101, 86, 85, 93, 87, 84, 85, 86, 78, 70, 75, 86, 88, 88, 101, 99, 89, 91, 91, 84, 85, 95, 105, 103, 97, 105, 104, 92, 100, 108, 103, 94, 92, 84, 78, 76, 77, 80, 74, 76, 82, 82, 77, 83, 75, 71, 67, 71, 73, 72, 88, 91, 101, 101, 106},
{76, 78, 74, 72, 81, 78, 76, 76, 78, 66, 57, 73, 81, 94, 93, 94, 84, 76, 61, 64, 64, 61, 64, 62, 65, 64, 67, 73, 85, 85, 84, 97, 95, 82, 81, 80, 67, 63, 64, 67, 72, 78, 80, 85, 89, 88, 78, 78, 83, 75, 71, 70, 67, 52, 60, 62, 76, 77, 78, 72, 72, 61, 56, 55, 56, 57, 53, 60, 63, 63, 67, 67, 62, 59, 56, 45, 45, 47, 48, 53, 57, 58, 62, 61, 59, 59, 62, 52, 54, 51, 48, 40, 43, 49, 50, 50, 51, 51, 45, 48},
{131, 125, 114, 123, 135, 118, 129, 132, 130, 119, 116, 112, 127, 146, 144, 141, 139, 131, 99, 98, 101, 98, 89, 99, 107, 104, 98, 120, 130, 131, 127, 167, 162, 149, 142, 143, 97, 86, 85, 86, 99, 123, 136, 135, 142, 144, 130, 118, 118, 117, 106, 100, 97, 102, 105, 109, 118, 115, 110, 109, 112, 105, 109, 122, 127, 137, 140, 145, 154, 147, 129, 126, 124, 140, 149, 157, 162, 161, 133, 151, 145, 148, 149, 142, 112, 114, 95, 74, 81, 76, 67, 63, 68, 78, 76, 80, 84, 82, 83, 91},
{142, 124, 125, 137, 128, 160, 166, 168, 168, 176, 139, 153, 160, 153, 153, 171, 163, 161, 176, 182, 175, 172, 176, 185, 160, 193, 194, 212, 210, 213, 197, 204, 195, 217, 226, 226, 221, 217, 174, 181, 213, 246, 254, 294, 286, 308, 287, 305, 284, 282, 219, 242, 212, 202, 221, 231, 205, 208, 202, 214, 208, 200, 218, 244, 239, 264, 285, 265, 257, 233, 207, 204, 200, 177, 195, 188, 180, 210, 213, 203, 203, 191, 164, 175, 184, 204, 249, 246, 285, 285, 270, 228, 225, 175, 160, 152, 153, 165, 137, 154}}

// 2 Reading of the 8 sensors, 100 samples per sensor
{{138, 142, 161, 151, 167, 170, 171, 157, 159, 155, 177, 188, 188, 198, 214, 230, 232, 233, 224, 206, 186, 187, 219, 218, 216, 199, 228, 242, 314, 330, 347, 338, 349, 332, 353, 344, 376, 406, 382, 356, 371, 337, 275, 277, 277, 300, 341, 325, 338, 332, 315, 271, 354, 349, 365, 336, 352, 261, 259, 241, 300, 285, 336, 319, 324, 291, 267, 232, 224, 244, 307, 312, 307, 330, 336, 291, 311, 297, 366, 343, 340, 381, 393, 315, 313, 292, 230, 235, 252, 250, 253, 321, 326, 306, 339, 337, 255, 242, 240, 210},
{76, 75, 94, 101, 113, 119, 120, 109, 99, 80, 83, 85, 84, 99, 98, 94, 93, 87, 77, 80, 77, 98, 107, 101, 112, 112, 103, 98, 103, 93, 90, 92, 98, 111, 123, 123, 123, 119, 114, 97, 127, 128, 132, 125, 125, 102, 92, 91, 103, 101, 96, 100, 97, 86, 108, 109, 106, 108, 102, 84, 85, 97, 110, 113, 119, 118, 116, 101, 104, 101, 101, 99, 95, 90, 94, 94, 92, 103, 109, 101, 114, 112, 109, 118, 119, 118, 116, 122, 120, 131, 143, 175, 185, 179, 179, 165, 138, 111, 113, 102},
{310, 316, 323, 336, 409, 418, 427, 407, 390, 288, 296, 281, 327, 348, 342, 354, 376, 332, 318, 345, 352, 378, 406, 392, 429, 393, 360, 332, 333, 269, 284, 279, 295, 298, 327, 350, 380, 360, 401, 412, 392, 402, 437, 418, 382, 388, 409, 385, 396, 421, 425, 359, 369, 378, 421, 413, 410, 404, 369, 264, 270, 396, 442, 446, 459, 477, 430, 360, 360, 377, 375, 350, 378, 384, 373, 351, 335, 315, 336, 316, 302, 309, 343, 436, 470, 472, 482, 483, 386, 375, 397, 385, 435, 427, 449, 432, 477, 418, 424, 386},
{315, 326, 335, 346, 351, 344, 339, 359, 348, 335, 330, 331, 369, 363, 347, 363, 395, 370, 395, 430, 427, 415, 395, 369, 384, 361, 426, 420, 451, 476, 492, 446, 471, 479, 466, 595, 642, 628, 703, 672, 563, 517, 547, 470, 477, 469, 502, 509, 523, 543, 537, 483, 459, 407, 388, 381, 382, 349, 334, 347, 385, 417, 445, 454, 458, 486, 525, 528, 534, 538, 507, 434, 463, 484, 489, 490, 507, 483, 451, 398, 407, 389, 356, 374, 396, 378, 385, 391, 370, 375, 411, 424, 442, 429, 425, 440, 414, 380, 404, 416},
{77, 82, 84, 93, 98, 104, 102, 99, 94, 83, 74, 79, 92, 89, 93, 93, 105, 102, 104, 112, 119, 109, 106, 101, 106, 99, 100, 97, 94, 82, 83, 79, 88, 96, 98, 123, 134, 132, 136, 142, 124, 118, 130, 131, 129, 135, 133, 137, 144, 142, 137, 133, 125, 113, 121, 113, 111, 113, 110, 97, 112, 120, 110, 114, 122, 123, 131, 123, 122, 119, 113, 105, 117, 119, 130, 135, 131, 125, 119, 100, 94, 93, 89, 94, 93, 102, 106, 111, 108, 120, 118, 129, 127, 126, 116, 119, 112, 109, 121, 136},
{47, 51, 50, 74, 79, 85, 83, 89, 74, 72, 66, 68, 59, 54, 55, 64, 65, 62, 60, 60, 52, 53, 53, 65, 65, 66, 67, 73, 64, 65, 66, 70, 68, 69, 67, 82, 79, 80, 80, 87, 74, 75, 82, 109, 106, 105, 102, 94, 60, 61, 63, 67, 75, 75, 73, 75, 68, 59, 58, 57, 55, 61, 59, 61, 57, 57, 56, 65, 65, 63, 93, 100, 97, 96, 98, 67, 61, 57, 57, 55, 57, 49, 49, 51, 65, 68, 87, 94, 95, 89, 88, 73, 71, 71, 68, 67, 65, 56, 58, 60},
{86, 88, 82, 92, 84, 111, 122, 126, 124, 128, 106, 99, 95, 91, 83, 94, 90, 98, 100, 106, 104, 121, 114, 130, 147, 147, 140, 153, 149, 129, 118, 117, 107, 98, 120, 135, 146, 144, 146, 134, 128, 128, 227, 266, 270, 279, 279, 208, 159, 179, 161, 155, 194, 193, 176, 189, 183, 187, 186, 206, 207, 218, 187, 190, 159, 141, 181, 176, 171, 172, 200, 153, 150, 151, 163, 143, 141, 147, 139, 117, 107, 112, 98, 115, 133, 135, 169, 174, 176, 167, 165, 138, 149, 141, 140, 154, 142, 135, 144, 139},
{152, 155, 153, 160, 127, 128, 142, 214, 214, 223, 226, 232, 195, 206, 209, 228, 211, 210, 200, 194, 175, 218, 210, 217, 218, 213, 195, 221, 244, 266, 265, 256, 242, 246, 289, 294, 378, 383, 359, 315, 332, 247, 283, 282, 280, 263, 267, 235, 243, 237, 224, 209, 202, 238, 245, 241, 235, 215, 164, 192, 213, 202, 210, 206, 174, 171, 169, 211, 214, 211, 248, 269, 228, 229, 239, 182, 185, 205, 220, 221, 225, 212, 189, 164, 136, 138, 139, 149, 189, 197, 188, 196, 198, 171, 172, 211, 205, 199, 207, 204}}

// 3 Reading of the 8 sensors, 100 samples per sensor
{{105, 119, 140, 144, 146, 190, 181, 173, 211, 214, 188, 200, 226, 211, 207, 219, 218, 214, 206, 282, 276, 288, 297, 295, 257, 245, 229, 201, 218, 219, 287, 290, 295, 291, 273, 231, 268, 265, 295, 311, 288, 268, 309, 266, 233, 240, 223, 177, 186, 232, 225, 224, 209, 199, 159, 189, 185, 209, 235, 276, 290, 294, 272, 264, 206, 225, 216, 223, 206, 225, 188, 208, 212, 224, 227, 212, 231, 231, 241, 243, 234, 207, 237, 225, 215, 219, 237, 204, 223, 220, 242, 218, 220, 229, 213, 207, 275, 284, 257, 271},
{77, 67, 79, 81, 83, 86, 88, 86, 87, 91, 85, 103, 127, 125, 133, 133, 131, 103, 113, 104, 115, 107, 127, 141, 143, 135, 133, 124, 99, 109, 135, 143, 142, 144, 143, 118, 114, 110, 119, 111, 111, 117, 118, 106, 110, 123, 134, 140, 145, 151, 143, 140, 136, 132, 121, 129, 113, 101, 102, 106, 101, 122, 129, 129, 122, 116, 95, 93, 99, 97, 107, 103, 100, 91, 89, 78, 79, 76, 94, 95, 96, 98, 97, 80, 79, 87, 84, 86, 116, 121, 114, 111, 110, 74, 65, 59, 78, 95, 98, 105},
{225, 259, 277, 277, 274, 266, 234, 219, 241, 234, 242, 260, 258, 246, 310, 325, 352, 360, 396, 416, 423, 466, 495, 544, 553, 577, 515, 489, 408, 446, 422, 460, 482, 473, 371, 341, 320, 290, 360, 405, 445, 443, 450, 392, 336, 292, 323, 340, 358, 422, 423, 404, 405, 414, 368, 393, 384, 343, 338, 334, 313, 316, 326, 328, 319, 294, 282, 286, 301, 311, 325, 323, 327, 306, 312, 305, 308, 284, 320, 289, 280, 282, 281, 266, 255, 252, 246, 259, 246, 292, 318, 329, 321, 296, 311, 305, 291, 297, 323, 308},
{230, 246, 267, 284, 257, 293, 314, 310, 304, 319, 324, 309, 343, 313, 378, 385, 397, 376, 408, 481, 520, 552, 563, 555, 486, 443, 387, 402, 403, 443, 444, 461, 445, 451, 375, 340, 333, 306, 294, 287, 353, 327, 324, 299, 277, 215, 278, 285, 284, 311, 304, 249, 239, 248, 230, 251, 259, 263, 273, 269, 235, 234, 220, 209, 222, 228, 209, 225, 230, 211, 218, 243, 229, 222, 222, 195, 168, 174, 182, 185, 189, 200, 225, 217, 209, 218, 220, 191, 173, 166, 171, 174, 178, 180, 188, 172, 151, 138, 178, 217},
{77, 70, 80, 89, 84, 84, 85, 87, 69, 76, 76, 74, 79, 78, 76, 83, 89, 76, 83, 123, 119, 116, 121, 118, 85, 90, 91, 82, 80, 102, 102, 105, 112, 117, 86, 78, 71, 62, 59, 74, 85, 87, 90, 86, 75, 76, 88, 90, 90, 92, 89, 76, 69, 67, 61, 57, 58, 63, 65, 67, 68, 71, 70, 72, 74, 78, 73, 72, 68, 65, 66, 66, 72, 74, 85, 78, 74, 69, 67, 55, 57, 62, 69, 72, 75, 82, 79, 74, 74, 67, 67, 71, 68, 69, 69, 64, 68, 67, 68, 81},
{60, 54, 55, 74, 87, 85, 85, 90, 73, 65, 68, 65, 63, 64, 56, 57, 63, 58, 53, 58, 59, 57, 57, 58, 55, 51, 46, 45, 44, 39, 37, 43, 49, 51, 51, 49, 45, 38, 34, 35, 35, 44, 43, 45, 45, 47, 45, 45, 43, 42, 46, 40, 45, 43, 43, 40, 38, 39, 41, 42, 41, 43, 41, 41, 43, 41, 39, 39, 40, 35, 37, 39, 37, 36, 42, 41, 40, 43, 43, 37, 36, 39, 36, 37, 46, 48, 47, 47, 47, 38, 36, 37, 36, 38, 46, 48, 47, 50, 48, 41},
{99, 97, 101, 139, 140, 132, 138, 155, 121, 111, 117, 110, 106, 106, 111, 121, 126, 114, 127, 126, 117, 117, 112, 96, 88, 83, 71, 85, 91, 87, 91, 102, 92, 85, 88, 84, 74, 74, 73, 71, 75, 79, 72, 81, 81, 73, 77, 79, 68, 75, 87, 82, 79, 80, 75, 63, 58, 70, 66, 65, 73, 71, 64, 75, 80, 72, 79, 79, 73, 65, 83, 88, 88, 91, 100, 83, 70, 85, 80, 71, 72, 93, 79, 76, 88, 91, 69, 69, 74, 56, 69, 78, 76, 74, 77, 81, 87, 122, 125, 130},
{96, 122, 156, 160, 206, 204, 190, 167, 200, 180, 204, 215, 238, 247, 236, 231, 233, 210, 208, 216, 209, 200, 202, 162, 177, 166, 166, 166, 199, 171, 196, 219, 221, 189, 187, 196, 168, 162, 200, 217, 183, 197, 225, 203, 180, 178, 195, 170, 164, 184, 194, 164, 155, 161, 209, 214, 212, 221, 226, 185, 180, 198, 190, 177, 162, 170, 138, 138, 142, 142, 164, 222, 224, 222, 265, 239, 191, 192, 251, 211, 214, 227, 232, 181, 188, 185, 169, 174, 187, 165, 164, 178, 166, 156, 160, 176, 222, 256, 248, 249}}

// 4 Reading of the 8 sensors, 100 samples per sensor
{{100, 183, 180, 231, 233, 233, 259, 261, 295, 292, 280, 260, 311, 275, 278, 270, 281, 259, 236, 241, 244, 234, 208, 207, 222, 226, 237, 265, 269, 258, 247, 248, 206, 191, 221, 231, 227, 266, 289, 282, 311, 343, 332, 318, 364, 355, 315, 307, 300, 220, 185, 223, 205, 216, 208, 298, 274, 286, 313, 317, 273, 289, 284, 258, 286, 279, 331, 345, 339, 321, 290, 205, 193, 207, 195, 192, 205, 215, 194, 194, 227, 225, 193, 205, 218, 197, 175, 183, 223, 218, 209, 219, 247, 203, 191, 219, 222, 200, 222, 235},
{45, 81, 82, 106, 106, 121, 126, 134, 130, 143, 137, 144, 142, 148, 137, 130, 120, 115, 98, 111, 106, 102, 109, 109, 96, 102, 110, 102, 107, 105, 109, 110, 111, 109, 126, 137, 144, 147, 150, 143, 132, 120, 123, 123, 142, 156, 152, 148, 143, 124, 118, 153, 156, 179, 178, 181, 157, 155, 145, 152, 162, 159, 155, 146, 171, 152, 155, 176, 174, 140, 132, 127, 100, 96, 90, 91, 101, 102, 102, 112, 127, 124, 121, 127, 132, 130, 119, 116, 116, 118, 114, 119, 135, 138, 144, 144, 142, 129, 125, 104},
{193, 329, 374, 449, 452, 447, 485, 466, 397, 410, 425, 447, 490, 550, 535, 555, 569, 546, 534, 579, 557, 474, 520, 494, 434, 474, 546, 503, 498, 504, 458, 372, 327, 318, 363, 414, 447, 462, 456, 479, 481, 465, 460, 515, 537, 576, 558, 591, 546, 471, 375, 429, 408, 454, 502, 549, 543, 542, 520, 548, 538, 518, 490, 519, 533, 521, 521, 593, 545, 476, 446, 446, 362, 386, 376, 398, 399, 386, 440, 459, 477, 448, 472, 423, 414, 431, 431, 481, 482, 535, 535, 532, 500, 488, 462, 421, 415, 382, 420, 347},
{120, 314, 344, 397, 366, 324, 338, 308, 234, 266, 290, 287, 320, 356, 336, 324, 311, 293, 268, 318, 342, 338, 383, 374, 328, 328, 396, 375, 391, 400, 403, 399, 392, 424, 434, 443, 437, 429, 400, 428, 421, 394, 397, 427, 441, 421, 397, 400, 371, 332, 325, 334, 324, 337, 329, 371, 367, 364, 342, 338, 318, 338, 326, 329, 345, 341, 333, 351, 357, 329, 375, 383, 395, 392, 425, 389, 398, 382, 368, 344, 337, 296, 282, 278, 274, 275, 275, 295, 330, 339, 361, 379, 362, 326, 315, 257, 244, 259, 287, 278},
{46, 80, 67, 66, 64, 71, 77, 91, 95, 96, 102, 101, 87, 97, 102, 96, 95, 95, 82, 78, 72, 73, 78, 78, 79, 87, 89, 95, 96, 95, 89, 91, 89, 94, 96, 105, 108, 111, 103, 105, 99, 99, 99, 102, 108, 109, 107, 97, 97, 87, 92, 88, 92, 95, 94, 91, 93, 95, 89, 91, 94, 94, 88, 95, 105, 96, 93, 94, 97, 87, 86, 91, 90, 83, 79, 75, 76, 82, 89, 87, 92, 91, 87, 83, 108, 108, 101, 99, 96, 66, 70, 70, 75, 75, 80, 74, 76, 74, 71, 68},
{95, 74, 80, 82, 81, 85, 84, 84, 87, 87, 91, 91, 88, 90, 86, 72, 74, 81, 73, 72, 72, 66, 53, 55, 56, 55, 68, 63, 62, 74, 71, 62, 63, 63, 49, 59, 55, 59, 59, 64, 61, 63, 60, 58, 54, 48, 46, 52, 55, 53, 58, 66, 64, 62, 62, 64, 59, 58, 58, 66, 66, 64, 63, 66, 67, 63, 62, 66, 71, 62, 63, 65, 68, 59, 62, 60, 61, 52, 57, 64, 64, 63, 61, 62, 53, 55, 60, 62, 56, 54, 54, 46, 44, 51, 62, 63, 62, 68, 66, 55},
{114, 137, 120, 116, 125, 126, 135, 146, 152, 157, 167, 156, 157, 160, 140, 129, 130, 116, 109, 109, 107, 105, 97, 98, 91, 83, 79, 77, 70, 89, 106, 109, 112, 112, 100, 86, 77, 86, 79, 77, 82, 85, 79, 85, 107, 105, 103, 103, 100, 75, 74, 77, 80, 91, 94, 92, 96, 90, 80, 84, 87, 84, 86, 99, 95, 91, 92, 90, 76, 81, 79, 78, 78, 81, 79, 93, 89, 86, 87, 91, 80, 79, 89, 85, 75, 72, 76, 69, 70, 67, 74, 69, 65, 59, 61, 58, 66, 76, 82, 78},
{78, 230, 198, 224, 227, 221, 206, 243, 213, 229, 270, 265, 250, 277, 261, 244, 255, 243, 236, 236, 214, 196, 196, 166, 160, 152, 172, 167, 183, 196, 227, 215, 206, 197, 202, 180, 201, 201, 222, 205, 199, 212, 222, 211, 275, 273, 244, 241, 236, 161, 161, 191, 218, 225, 220, 244, 234, 211, 221, 215, 210, 219, 210, 191, 223, 204, 195, 210, 228, 200, 186, 190, 183, 153, 151, 168, 152, 144, 187, 189, 186, 186, 184, 172, 171, 165, 158, 170, 148, 152, 147, 170, 168, 151, 141, 199, 192, 183, 224, 230}}

// 5 Reading of the 8 sensors, 100 samples per sensor
{{234, 241, 248, 275, 298, 311, 280, 261, 215, 187, 194, 199, 275, 289, 285, 298, 332, 276, 274, 284, 283, 292, 285, 275, 263, 242, 190, 194, 260, 301, 292, 285, 316, 272, 245, 239, 267, 267, 290, 284, 294, 270, 257, 223, 208, 193, 192, 165, 155, 155, 176, 171, 174, 168, 186, 175, 178, 162, 161, 140, 133, 161, 179, 240, 241, 241, 280, 278, 258, 288, 317, 297, 328, 333, 346, 322, 314, 309, 359, 335, 338, 329, 307, 224, 303, 326, 323, 338, 374, 324, 307, 323, 302, 276, 260, 277, 275, 281, 248, 254},
{130, 155, 160, 167, 168, 155, 136, 131, 123, 120, 131, 124, 121, 130, 147, 145, 142, 142, 133, 125, 118, 128, 129, 126, 126, 125, 112, 108, 109, 92, 85, 80, 90, 88, 86, 96, 101, 93, 95, 95, 86, 81, 84, 82, 85, 87, 92, 90, 102, 115, 107, 116, 122, 114, 101, 107, 99, 92, 93, 90, 107, 113, 111, 112, 114, 102, 86, 101, 103, 111, 116, 126, 124, 135, 134, 138, 138, 140, 132, 134, 128, 133, 125, 139, 143, 141, 129, 129, 117, 106, 106, 113, 110, 119, 121, 127, 137, 145, 149, 145},
{485, 499, 516, 494, 492, 465, 417, 377, 434, 413, 422, 420, 435, 397, 521, 524, 565, 565, 558, 444, 478, 460, 442, 440, 484, 441, 420, 412, 387, 362, 379, 369, 405, 430, 369, 387, 388, 359, 328, 339, 313, 342, 343, 342, 363, 418, 413, 421, 451, 447, 362, 402, 399, 396, 389, 405, 375, 375, 327, 301, 363, 359, 412, 424, 438, 401, 371, 366, 395, 377, 386, 402, 333, 301, 337, 363, 348, 354, 339, 359, 320, 336, 323, 402, 379, 378, 366, 391, 326, 308, 287, 298, 268, 260, 282, 290, 299, 349, 368, 396},
{593, 617, 625, 601, 527, 462, 403, 374, 393, 420, 392, 413, 420, 432, 419, 468, 466, 462, 439, 449, 435, 441, 420, 401, 385, 327, 323, 342, 362, 389, 412, 397, 405, 384, 329, 334, 311, 297, 287, 273, 231, 309, 328, 333, 379, 373, 305, 303, 330, 321, 313, 369, 356, 323, 283, 291, 226, 209, 217, 218, 222, 217, 326, 323, 328, 341, 351, 255, 348, 344, 346, 341, 334, 245, 263, 263, 286, 310, 310, 354, 356, 347, 326, 336, 274, 275, 253, 283, 258, 259, 252, 291, 287, 304, 316, 339, 325, 343, 340, 392},
{93, 107, 109, 120, 119, 114, 102, 101, 94, 94, 96, 86, 84, 89, 99, 101, 102, 104, 97, 90, 103, 105, 108, 107, 102, 80, 93, 90, 94, 101, 113, 98, 101, 94, 90, 79, 85, 80, 84, 82, 76, 72, 69, 70, 74, 80, 84, 84, 81, 87, 84, 92, 97, 97, 85, 95, 90, 91, 89, 92, 81, 77, 77, 79, 81, 81, 74, 75, 79, 79, 90, 94, 86, 86, 84, 79, 84, 84, 82, 95, 91, 84, 83, 79, 59, 59, 58, 64, 75, 72, 71, 94, 91, 84, 91, 104, 89, 94, 94, 90},
{83, 80, 79, 112, 125, 131, 138, 138, 109, 92, 75, 75, 85, 90, 91, 97, 89, 92, 86, 110, 139, 143, 135, 133, 114, 71, 63, 61, 70, 72, 65, 61, 76, 79, 80, 83, 88, 80, 74, 70, 66, 61, 53, 81, 85, 90, 89, 91, 64, 64, 55, 57, 57, 55, 51, 53, 50, 50, 52, 48, 51, 59, 61, 62, 66, 64, 60, 57, 55, 50, 53, 49, 53, 55, 54, 50, 50, 40, 38, 37, 38, 38, 42, 42, 39, 37, 42, 42, 42, 43, 44, 44, 41, 43, 44, 44, 41, 47, 51, 52},
{185, 186, 297, 413, 464, 500, 516, 475, 372, 313, 268, 236, 240, 236, 227, 225, 231, 203, 221, 312, 325, 436, 461, 451, 401, 421, 313, 301, 316, 335, 284, 280, 261, 282, 254, 272, 323, 324, 296, 290, 280, 210, 192, 225, 244, 233, 234, 239, 211, 192, 199, 180, 173, 161, 168, 160, 163, 201, 210, 201, 207, 217, 174, 168, 186, 174, 170, 202, 197, 197, 206, 194, 176, 200, 187, 174, 172, 175, 149, 132, 140, 165, 138, 136, 158, 152, 135, 153, 165, 154, 189, 181, 180, 170, 194, 162, 169, 153, 153, 113},
{254, 263, 261, 267, 338, 290, 290, 295, 291, 203, 224, 193, 192, 188, 203, 188, 212, 239, 237, 234, 230, 217, 174, 160, 171, 172, 153, 152, 175, 146, 130, 145, 204, 191, 194, 205, 197, 142, 186, 222, 215, 220, 284, 263, 232, 241, 237, 152, 133, 147, 162, 149, 156, 157, 197, 177, 178, 186, 200, 152, 150, 179, 166, 158, 169, 170, 135, 136, 142, 127, 150, 181, 201, 236, 250, 249, 236, 252, 224, 206, 197, 189, 144, 155, 176, 173, 173, 235, 236, 226, 287, 293, 252, 289, 302, 253, 247, 240, 203, 178}}

// 6 Reading of the 8 sensors, 100 samples per sensor
{{241, 210, 249, 283, 302, 301, 306, 243, 251, 288, 299, 300, 312, 286, 264, 272, 262, 239, 234, 257, 243, 250, 263, 267, 231, 211, 217, 212, 212, 213, 254, 263, 287, 327, 342, 334, 320, 311, 273, 228, 226, 232, 230, 262, 269, 251, 248, 272, 297, 307, 312, 310, 268, 214, 190, 182, 182, 187, 152, 164, 189, 195, 193, 190, 178, 150, 150, 137, 147, 142, 174, 160, 198, 200, 201, 253, 259, 232, 239, 247, 170, 161, 162, 159, 142, 141, 135, 184, 178, 191, 182, 196, 159, 153, 148, 160, 156, 162, 162, 158},
{115, 107, 101, 103, 115, 110, 120, 132, 143, 139, 140, 140, 124, 125, 120, 120, 116, 116, 111, 114, 121, 113, 114, 115, 113, 105, 120, 117, 116, 126, 128, 118, 120, 120, 122, 124, 128, 139, 135, 125, 123, 116, 118, 116, 111, 115, 112, 109, 116, 115, 102, 108, 96, 99, 107, 108, 112, 109, 102, 93, 98, 102, 107, 104, 109, 106, 97, 111, 115, 125, 130, 141, 143, 138, 136, 134, 130, 114, 119, 112, 110, 96, 96, 87, 82, 78, 77, 83, 89, 89, 87, 92, 83, 89, 104, 124, 126, 134, 128, 121},
{396, 325, 384, 378, 379, 432, 419, 359, 382, 424, 384, 403, 378, 365, 328, 333, 334, 375, 397, 433, 436, 440, 423, 449, 401, 375, 410, 393, 348, 353, 375, 347, 382, 421, 407, 425, 390, 384, 333, 329, 303, 335, 336, 338, 335, 350, 330, 307, 338, 346, 322, 304, 284, 259, 272, 264, 271, 288, 246, 221, 252, 286, 290, 340, 347, 314, 304, 299, 258, 273, 289, 279, 335, 332, 353, 345, 357, 300, 359, 329, 353, 327, 327, 286, 302, 290, 293, 314, 290, 276, 269, 290, 287, 310, 305, 341, 332, 334, 321, 327},
{380, 350, 380, 371, 338, 384, 389, 350, 369, 401, 398, 396, 428, 399, 380, 378, 400, 449, 516, 520, 529, 519, 466, 457, 433, 392, 384, 373, 338, 331, 365, 399, 448, 474, 479, 521, 532, 486, 433, 452, 382, 333, 347, 370, 360, 381, 366, 366, 374, 358, 387, 424, 423, 423, 438, 403, 398, 408, 420, 412, 426, 405, 398, 379, 395, 356, 367, 393, 384, 379, 419, 406, 402, 386, 362, 316, 350, 303, 321, 312, 340, 320, 320, 332, 368, 369, 395, 393, 366, 337, 303, 295, 297, 334, 327, 363, 365, 394, 389, 401},
{118, 117, 119, 118, 98, 92, 101, 102, 94, 100, 101, 90, 91, 88, 78, 79, 89, 103, 119, 137, 144, 147, 138, 136, 122, 116, 112, 110, 113, 114, 115, 114, 123, 115, 121, 122, 113, 102, 107, 98, 99, 103, 113, 107, 112, 107, 137, 130, 127, 144, 151, 128, 127, 138, 125, 116, 110, 117, 98, 105, 105, 105, 94, 95, 89, 87, 87, 90, 89, 82, 88, 93, 98, 106, 118, 116, 122, 113, 112, 101, 109, 102, 101, 93, 98, 89, 88, 86, 89, 78, 77, 77, 79, 79, 71, 85, 89, 95, 94, 94},
{51, 50, 51, 54, 55, 48, 58, 61, 57, 58, 59, 49, 42, 44, 42, 45, 51, 54, 54, 61, 60, 54, 55, 53, 54, 58, 62, 61, 63, 59, 54, 51, 50, 83, 98, 108, 110, 110, 89, 73, 59, 56, 72, 78, 80, 79, 99, 90, 88, 84, 84, 63, 64, 56, 58, 61, 58, 60, 61, 60, 58, 56, 49, 50, 51, 53, 51, 53, 56, 65, 64, 64, 65, 66, 67, 64, 67, 65, 58, 44, 42, 41, 40, 42, 54, 56, 54, 54, 53, 42, 40, 40, 41, 40, 39, 43, 48, 50, 52, 51},
{88, 91, 81, 84, 90, 105, 104, 102, 92, 87, 83, 86, 85, 89, 101, 94, 90, 108, 110, 104, 101, 106, 97, 106, 114, 116, 115, 110, 105, 108, 114, 118, 125, 151, 158, 160, 157, 152, 134, 114, 108, 114, 128, 121, 124, 119, 127, 111, 108, 101, 99, 91, 102, 101, 103, 106, 91, 77, 79, 75, 71, 86, 85, 84, 84, 87, 79, 78, 74, 92, 93, 91, 99, 114, 103, 106, 107, 105, 88, 90, 83, 80, 73, 73, 71, 66, 65, 67, 67, 71, 73, 73, 70, 62, 46, 53, 60, 71, 70, 82},
{217, 228, 149, 146, 223, 232, 230, 225, 231, 179, 173, 195, 187, 184, 216, 231, 206, 234, 237, 212, 206, 207, 171, 211, 214, 214, 218, 225, 180, 183, 187, 190, 187, 194, 172, 166, 162, 177, 165, 180, 171, 161, 143, 152, 136, 134, 149, 140, 162, 164, 161, 158, 157, 158, 156, 153, 139, 152, 125, 114, 122, 175, 168, 171, 176, 186, 143, 138, 121, 151, 135, 135, 166, 197, 174, 190, 200, 181, 155, 157, 154, 138, 134, 128, 119, 91, 92, 97, 120, 126, 123, 122, 120, 98, 97, 102, 104, 96, 93, 104}}

// 7 Reading of the 8 sensors, 100 samples per sensor
{{159, 135, 150, 158, 159, 162, 180, 159, 158, 177, 176, 149, 166, 165, 152, 173, 185, 172, 168, 171, 142, 135, 152, 153, 182, 202, 207, 194, 194, 173, 167, 148, 162, 160, 171, 142, 135, 141, 129, 142, 122, 149, 164, 179, 236, 234, 271, 368, 372, 358, 366, 326, 228, 213, 169, 175, 227, 232, 241, 249, 242, 210, 180, 183, 200, 196, 185, 199, 188, 161, 164, 176, 158, 199, 216, 217, 225, 279, 290, 299, 297, 299, 296, 313, 300, 307, 312, 287, 235, 239, 249, 266, 262, 252, 242, 269, 256, 254, 263, 324},
{117, 99, 110, 98, 94, 106, 104, 101, 112, 120, 115, 126, 129, 119, 106, 113, 116, 104, 103, 105, 97, 82, 91, 111, 111, 125, 133, 131, 128, 138, 126, 123, 123, 109, 105, 97, 82, 111, 118, 110, 118, 117, 108, 101, 107, 105, 116, 134, 137, 143, 149, 143, 122, 121, 108, 103, 122, 121, 122, 140, 144, 129, 132, 128, 112, 95, 97, 126, 136, 135, 136, 136, 122, 121, 122, 127, 148, 148, 151, 149, 153, 141, 135, 128, 128, 119, 123, 124, 126, 135, 151, 142, 136, 145, 151, 139, 137, 150, 137, 125},
{382, 344, 346, 316, 312, 327, 327, 313, 354, 390, 389, 401, 406, 352, 318, 348, 359, 359, 368, 360, 318, 285, 266, 275, 293, 339, 405, 409, 417, 430, 412, 359, 407, 385, 360, 318, 285, 405, 397, 395, 375, 366, 398, 394, 400, 418, 426, 424, 435, 491, 527, 544, 507, 494, 466, 395, 404, 381, 384, 413, 399, 397, 427, 432, 397, 388, 346, 304, 308, 261, 267, 310, 334, 333, 367, 397, 458, 482, 525, 513, 528, 497, 475, 452, 435, 405, 435, 434, 401, 438, 434, 350, 313, 352, 388, 379, 380, 412, 392, 360},
{273, 253, 274, 279, 287, 274, 283, 269, 263, 260, 272, 256, 284, 268, 274, 254, 280, 259, 265, 238, 227, 207, 188, 217, 320, 344, 374, 399, 409, 348, 331, 315, 323, 323, 238, 227, 207, 336, 333, 347, 328, 312, 299, 293, 259, 279, 271, 285, 321, 364, 368, 405, 403, 395, 361, 335, 288, 277, 252, 258, 274, 290, 305, 313, 307, 291, 269, 255, 264, 312, 309, 320, 344, 336, 302, 324, 365, 348, 362, 362, 398, 387, 381, 393, 378, 317, 324, 341, 312, 322, 326, 289, 247, 248, 228, 259, 257, 266, 284, 321},
{85, 81, 90, 92, 90, 89, 87, 76, 70, 69, 63, 65, 73, 75, 79, 75, 76, 68, 71, 67, 80, 84, 84, 85, 86, 78, 75, 81, 78, 79, 77, 74, 68, 66, 67, 80, 84, 66, 62, 67, 72, 77, 73, 72, 73, 72, 65, 70, 77, 83, 81, 80, 76, 79, 69, 71, 73, 71, 63, 66, 70, 69, 74, 74, 78, 69, 69, 68, 67, 63, 66, 72, 73, 72, 73, 81, 86, 89, 96, 93, 93, 96, 90, 85, 90, 88, 89, 89, 88, 86, 82, 66, 71, 74, 73, 70, 77, 76, 79, 75},
{74, 65, 66, 67, 57, 63, 65, 59, 57, 65, 65, 63, 68, 65, 59, 58, 66, 59, 59, 58, 72, 68, 69, 75, 75, 69, 71, 72, 64, 64, 55, 49, 49, 50, 58, 72, 68, 52, 56, 54, 54, 55, 54, 44, 44, 43, 43, 42, 46, 47, 47, 44, 45, 48, 45, 45, 46, 44, 43, 56, 58, 59, 60, 62, 57, 53, 48, 52, 45, 47, 50, 53, 50, 50, 47, 45, 44, 45, 47, 44, 41, 38, 35, 32, 33, 33, 39, 38, 38, 40, 42, 37, 40, 41, 46, 44, 45, 44, 45, 37},
{140, 104, 100, 111, 98, 102, 101, 106, 96, 102, 94, 97, 91, 90, 72, 71, 79, 78, 77, 77, 89, 81, 87, 99, 97, 108, 113, 116, 106, 114, 95, 87, 77, 88, 77, 89, 81, 105, 115, 117, 118, 119, 97, 80, 74, 78, 66, 62, 64, 62, 57, 53, 58, 64, 66, 66, 65, 70, 69, 77, 79, 80, 83, 99, 94, 91, 93, 90, 70, 81, 84, 79, 75, 72, 68, 67, 65, 66, 84, 78, 79, 78, 84, 65, 70, 77, 94, 87, 97, 96, 89, 71, 106, 135, 137, 137, 143, 127, 91, 82},
{144, 131, 143, 157, 139, 156, 169, 157, 152, 156, 155, 154, 159, 165, 192, 176, 166, 183, 181, 158, 164, 163, 157, 150, 163, 159, 200, 191, 195, 180, 177, 151, 147, 151, 158, 164, 163, 157, 170, 163, 172, 172, 165, 144, 178, 176, 216, 247, 248, 219, 210, 158, 105, 190, 187, 202, 259, 259, 217, 260, 252, 206, 215, 224, 171, 169, 182, 191, 170, 206, 205, 197, 193, 197, 169, 216, 202, 209, 217, 244, 220, 222, 253, 250, 236, 232, 266, 222, 221, 226, 215, 178, 215, 210, 189, 195, 192, 168, 189, 203}}

// 8 lectura de los 8 sensores, 100 muestras por sensor
{{132, 134, 154, 155, 180, 182, 178, 168, 175, 144, 141, 183, 183, 208, 221, 246, 264, 286, 276, 272, 352, 325, 305, 316, 317, 199, 210, 212, 191, 206, 228, 224, 216, 219, 210, 183, 173, 180, 324, 375, 396, 455, 495, 423, 375, 386, 319, 259, 323, 330, 295, 301, 304, 212, 236, 245, 236, 240, 242, 223, 228, 244, 310, 336, 366, 368, 356, 283, 275, 228, 216, 263, 293, 289, 300, 301, 300, 282, 294, 279, 282, 264, 256, 233, 280, 266, 260, 258, 239, 207, 212, 193, 227, 259, 240, 237, 231, 238, 269, 276},
{93, 94, 96, 116, 121, 117, 117, 121, 104, 113, 111, 108, 98, 109, 120, 127, 147, 160, 153, 145, 183, 176, 185, 193, 199, 161, 160, 145, 145, 130, 128, 121, 116, 107, 120, 133, 130, 138, 154, 160, 158, 195, 216, 211, 211, 213, 207, 189, 184, 188, 176, 162, 165, 172, 152, 179, 173, 164, 154, 168, 152, 151, 178, 179, 172, 177, 177, 143, 145, 144, 150, 158, 164, 178, 180, 161, 144, 150, 157, 156, 159, 161, 150, 121, 121, 117, 120, 121, 130, 120, 127, 137, 134, 139, 145, 157, 163, 174, 187, 187},
{326, 321, 382, 393, 408, 408, 398, 363, 368, 393, 406, 395, 386, 384, 386, 340, 358, 390, 368, 350, 463, 467, 510, 517, 556, 492, 543, 477, 485, 430, 429, 400, 398, 419, 467, 474, 441, 435, 396, 372, 335, 408, 476, 534, 526, 548, 529, 557, 525, 526, 497, 468, 377, 366, 335, 357, 363, 385, 398, 402, 415, 396, 437, 478, 479, 459, 458, 378, 287, 296, 302, 339, 363, 380, 364, 382, 341, 330, 328, 310, 286, 305, 302, 273, 286, 295, 297, 283, 314, 315, 345, 376, 368, 369, 407, 389, 360, 394, 399, 377},
{277, 283, 287, 291, 282, 299, 280, 275, 278, 276, 310, 341, 345, 356, 353, 320, 316, 318, 316, 327, 314, 308, 328, 333, 349, 375, 461, 442, 434, 429, 430, 349, 352, 365, 383, 369, 344, 335, 305, 282, 269, 372, 499, 546, 523, 529, 464, 332, 294, 349, 347, 351, 369, 360, 347, 347, 354, 313, 329, 303, 324, 299, 309, 281, 298, 259, 279, 264, 256, 249, 257, 264, 344, 380, 399, 427, 415, 372, 366, 343, 302, 312, 342, 304, 313, 333, 341, 324, 338, 312, 310, 292, 259, 254, 257, 265, 309, 318, 324, 344},
{58, 64, 65, 69, 71, 68, 65, 65, 67, 64, 67, 71, 78, 75, 79, 80, 85, 85, 89, 94, 94, 88, 96, 95, 86, 90, 98, 88, 92, 97, 94, 88, 94, 98, 99, 97, 88, 83, 74, 81, 85, 114, 126, 127, 124, 122, 98, 79, 80, 79, 82, 79, 82, 84, 85, 80, 84, 84, 79, 75, 82, 83, 81, 77, 82, 71, 72, 70, 75, 67, 69, 66, 95, 98, 98, 100, 99, 75, 78, 83, 78, 76, 79, 81, 85, 90, 89, 84, 76, 65, 65, 73, 75, 80, 85, 89, 96, 96, 91, 88},
{46, 56, 60, 60, 61, 61, 51, 50, 49, 48, 51, 54, 57, 56, 56, 60, 59, 57, 58, 57, 48, 44, 43, 44, 45, 50, 60, 60, 61, 60, 64, 55, 59, 60, 61, 53, 52, 55, 59, 59, 59, 64, 60, 54, 61, 62, 55, 49, 48, 39, 39, 38, 40, 44, 43, 41, 41, 45, 44, 42, 44, 47, 45, 43, 42, 45, 42, 41, 42, 43, 38, 39, 43, 45, 44, 44, 44, 39, 36, 41, 43, 42, 45, 46, 43, 40, 41, 39, 38, 38, 40, 40, 40, 39, 44, 41, 40, 40, 41, 36},
{85, 96, 102, 97, 102, 108, 96, 81, 77, 72, 67, 84, 98, 99, 103, 106, 98, 95, 94, 91, 80, 92, 80, 82, 84, 89, 81, 86, 86, 80, 83, 78, 83, 82, 83, 77, 89, 85, 95, 97, 99, 88, 88, 75, 76, 75, 68, 57, 55, 49, 42, 41, 40, 52, 52, 54, 56, 64, 58, 63, 62, 64, 63, 60, 56, 67, 62, 58, 65, 67, 54, 61, 67, 66, 64, 65, 61, 55, 51, 53, 57, 55, 56, 55, 52, 48, 49, 53, 52, 52, 50, 49, 43, 44, 51, 53, 56, 57, 64, 60},
{155, 159, 167, 178, 191, 182, 196, 188, 173, 157, 153, 165, 171, 188, 195, 213, 207, 202, 201, 240, 248, 258, 259, 248, 201, 167, 162, 158, 172, 203, 218, 199, 193, 184, 149, 122, 126, 125, 190, 241, 280, 323, 349, 335, 305, 311, 271, 244, 229, 231, 173, 152, 145, 137, 125, 145, 144, 137, 134, 148, 134, 144, 179, 180, 176, 220, 213, 185, 220, 227, 193, 220, 258, 227, 233, 224, 204, 169, 179, 151, 159, 157, 141, 122, 162, 168, 186, 218, 216, 215, 206, 196, 167, 164, 184, 184, 166, 174, 232, 198}}

// 9 Reading of the 8 sensors, 100 samples per sensor
{{76, 72, 73, 71, 81, 59, 60, 61, 71, 64, 65, 72, 76, 70, 87, 88, 80, 84, 81, 60, 58, 74, 66, 68, 68, 83, 69, 70, 70, 68, 67, 67, 65, 65, 78, 64, 63, 61, 72, 58, 58, 56, 75, 64, 64, 64, 82, 69, 67, 67, 74, 72, 69, 70, 77, 66, 47, 53, 64, 56, 57, 59, 57, 62, 62, 62, 61, 57, 50, 48, 49, 49, 62, 52, 55, 53, 72, 65, 66, 64, 83, 68, 66, 67, 77, 61, 60, 60, 56, 58, 53, 52, 51, 54, 37, 53, 54, 63, 61, 62},
{78, 75, 73, 74, 69, 51, 54, 60, 66, 72, 77, 73, 64, 63, 63, 60, 61, 61, 62, 56, 59, 64, 70, 68, 75, 69, 70, 70, 68, 61, 66, 63, 57, 61, 58, 57, 58, 55, 48, 49, 48, 44, 48, 50, 54, 52, 54, 63, 62, 60, 57, 89, 88, 88, 90, 95, 64, 60, 61, 56, 50, 51, 55, 64, 64, 68, 68, 64, 57, 63, 60, 67, 64, 60, 60, 57, 55, 52, 54, 45, 52, 44, 52, 53, 57, 52, 52, 48, 45, 49, 55, 55, 53, 53, 54, 48, 47, 54, 55, 51},
{377, 329, 299, 319, 317, 240, 261, 294, 281, 298, 341, 335, 288, 292, 299, 265, 261, 265, 251, 237, 228, 223, 235, 224, 201, 194, 232, 230, 231, 231, 280, 276, 300, 318, 316, 269, 239, 190, 159, 170, 176, 175, 191, 199, 222, 221, 222, 232, 231, 206, 193, 231, 231, 223, 244, 250, 219, 202, 205, 167, 167, 165, 158, 185, 203, 243, 246, 307, 291, 296, 298, 302, 257, 264, 268, 230, 209, 200, 186, 162, 154, 152, 168, 175, 185, 186, 191, 160, 157, 146, 166, 170, 165, 177, 222, 221, 230, 250, 244, 211},
{345, 348, 337, 329, 327, 194, 188, 211, 230, 268, 285, 291, 261, 254, 239, 214, 244, 252, 250, 262, 296, 263, 260, 269, 242, 212, 223, 235, 230, 224, 273, 269, 295, 306, 306, 248, 259, 230, 200, 203, 233, 207, 202, 193, 233, 230, 225, 215, 236, 186, 163, 186, 186, 158, 164, 167, 145, 135, 141, 127, 110, 127, 133, 144, 155, 168, 163, 209, 200, 194, 196, 186, 131, 151, 160, 138, 139, 156, 141, 137, 140, 134, 141, 144, 174, 172, 177, 155, 206, 204, 222, 254, 261, 222, 224, 232, 206, 201, 197, 183},
{66, 65, 65, 68, 65, 55, 58, 60, 62, 67, 68, 64, 70, 66, 69, 66, 69, 65, 70, 75, 78, 79, 79, 75, 65, 57, 56, 58, 65, 63, 70, 66, 63, 59, 63, 58, 55, 53, 49, 44, 47, 47, 50, 48, 48, 44, 43, 35, 39, 39, 36, 50, 54, 50, 51, 54, 43, 42, 45, 45, 48, 51, 51, 54, 55, 58, 57, 63, 61, 59, 57, 57, 47, 49, 52, 46, 52, 52, 49, 50, 50, 46, 47, 48, 49, 46, 45, 44, 45, 51, 52, 62, 66, 65, 62, 61, 50, 47, 51, 52},
{65, 53, 49, 51, 61, 66, 67, 72, 89, 86, 87, 87, 92, 96, 96, 99, 102, 121, 125, 126, 145, 145, 127, 108, 108, 77, 74, 65, 70, 60, 50, 48, 53, 50, 55, 63, 63, 61, 61, 65, 70, 69, 74, 76, 70, 64, 65, 65, 68, 68, 64, 70, 64, 54, 60, 61, 51, 50, 58, 57, 56, 62, 66, 70, 81, 85, 82, 83, 77, 60, 57, 57, 54, 54, 57, 58, 58, 55, 54, 55, 49, 52, 51, 56, 54, 60, 57, 56, 55, 60, 56, 58, 61, 57, 52, 55, 67, 70, 79, 79},
{107, 93, 94, 114, 140, 140, 137, 140, 143, 126, 131, 134, 156, 154, 157, 171, 179, 214, 210, 204, 204, 216, 160, 154, 169, 159, 137, 143, 145, 138, 127, 117, 115, 111, 98, 95, 105, 105, 104, 109, 123, 118, 114, 130, 125, 116, 125, 136, 121, 120, 124, 118, 103, 97, 116, 112, 110, 111, 123, 105, 96, 123, 123, 121, 152, 156, 132, 152, 148, 115, 119, 124, 101, 99, 104, 102, 91, 87, 85, 85, 77, 77, 89, 91, 90, 109, 109, 97, 128, 141, 126, 141, 145, 115, 95, 104, 91, 88, 105, 105},
{65, 64, 67, 67, 69, 54, 45, 47, 52, 66, 71, 77, 87, 92, 88, 94, 90, 85, 77, 71, 65, 65, 59, 55, 65, 70, 72, 71, 74, 63, 51, 46, 58, 55, 57, 62, 68, 57, 60, 57, 57, 49, 60, 56, 57, 56, 59, 49, 50, 50, 45, 58, 58, 56, 56, 56, 41, 43, 42, 46, 43, 47, 46, 50, 48, 52, 49, 47, 47, 44, 44, 44, 42, 38, 39, 38, 40, 39, 42, 45, 45, 43, 47, 48, 45, 44, 45, 44, 42, 45, 43, 42, 41, 49, 48, 49, 49, 56, 52, 50}}

// 10 Reading of the 8 sensors, 100 samples per sensor
{{54, 79, 80, 82, 83, 89, 61, 59, 67, 72, 66, 65, 83, 77, 75, 116, 120, 112, 116, 118, 88, 88, 83, 78, 75, 79, 71, 73, 86, 85, 71, 137, 150, 142, 146, 159, 116, 101, 102, 98, 76, 77, 94, 94, 102, 100, 89, 67, 80, 69, 68, 77, 80, 66, 65, 71, 64, 69, 69, 77, 78, 75, 65, 64, 60, 60, 58, 78, 79, 93, 101, 101, 89, 97, 82, 67, 64, 78, 71, 70, 68, 77, 65, 60, 57, 75, 67, 60, 60, 71, 58, 58, 56, 74, 69, 65, 66, 67, 69, 66},
{47, 49, 53, 55, 49, 54, 52, 53, 55, 53, 48, 55, 53, 52, 59, 66, 65, 71, 75, 71, 68, 63, 55, 51, 51, 55, 56, 59, 62, 67, 66, 70, 75, 71, 65, 65, 63, 60, 60, 62, 61, 63, 62, 64, 64, 63, 56, 53, 52, 50, 47, 56, 59, 61, 65, 66, 57, 55, 50, 49, 49, 50, 50, 54, 48, 46, 51, 50, 50, 53, 55, 50, 51, 57, 56, 55, 59, 64, 56, 54, 54, 52, 39, 39, 41, 50, 49, 51, 53, 52, 49, 49, 48, 50, 51, 46, 46, 46, 42, 40},
{185, 192, 199, 204, 195, 197, 185, 183, 206, 199, 182, 205, 216, 218, 275, 295, 299, 304, 283, 248, 231, 210, 213, 221, 211, 264, 296, 278, 274, 301, 298, 280, 295, 290, 260, 230, 238, 238, 237, 237, 224, 215, 194, 200, 217, 218, 192, 193, 244, 232, 225, 265, 283, 243, 271, 269, 231, 246, 250, 237, 248, 253, 215, 204, 186, 167, 197, 201, 223, 222, 221, 212, 237, 257, 264, 264, 252, 241, 203, 187, 186, 187, 189, 188, 188, 232, 222, 205, 207, 198, 174, 180, 188, 182, 189, 152, 160, 150, 149, 143},
{151, 160, 177, 182, 174, 170, 171, 163, 155, 163, 167, 168, 175, 199, 205, 194, 193, 184, 167, 159, 172, 164, 179, 170, 169, 174, 197, 175, 173, 191, 203, 195, 208, 209, 193, 198, 192, 182, 186, 181, 166, 192, 210, 211, 223, 208, 177, 170, 176, 163, 177, 184, 181, 160, 167, 169, 160, 181, 190, 192, 174, 185, 162, 155, 149, 152, 164, 153, 152, 161, 156, 143, 146, 155, 157, 161, 150, 147, 142, 128, 149, 142, 135, 135, 133, 123, 120, 116, 124, 117, 99, 103, 104, 85, 88, 82, 93, 93, 105, 99},
{43, 45, 50, 53, 53, 53, 54, 50, 44, 46, 44, 46, 56, 60, 63, 64, 63, 60, 57, 54, 54, 55, 50, 48, 47, 49, 49, 51, 51, 63, 61, 59, 56, 57, 42, 49, 49, 48, 44, 45, 48, 49, 51, 57, 57, 49, 47, 47, 41, 47, 46, 49, 48, 48, 40, 46, 44, 47, 46, 48, 43, 41, 38, 43, 43, 43, 53, 53, 52, 54, 54, 46, 45, 47, 43, 42, 41, 43, 39, 45, 45, 45, 42, 43, 39, 40, 41, 40, 39, 38, 37, 35, 35, 34, 35, 32, 42, 43, 44, 43},
{42, 43, 47, 48, 46, 43, 46, 43, 43, 38, 42, 39, 42, 43, 46, 42, 42, 37, 36, 37, 38, 38, 47, 49, 53, 53, 51, 44, 42, 38, 38, 42, 42, 41, 42, 48, 44, 46, 45, 42, 38, 36, 33, 35, 34, 31, 33, 34, 31, 36, 34, 34, 35, 35, 27, 39, 40, 39, 38, 41, 32, 33, 33, 35, 35, 36, 37, 37, 38, 38, 36, 31, 32, 33, 34, 37, 39, 39, 35, 36, 37, 36, 35, 36, 32, 32, 32, 32, 31, 34, 29, 30, 31, 31, 30, 31, 33, 32, 33, 37},
{57, 58, 67, 67, 63, 57, 55, 44, 45, 45, 49, 49, 54, 64, 69, 67, 68, 69, 64, 61, 64, 63, 72, 70, 70, 67, 68, 52, 51, 51, 52, 54, 56, 55, 68, 70, 71, 70, 69, 57, 70, 65, 70, 69, 67, 52, 51, 47, 48, 58, 52, 57, 54, 55, 43, 56, 54, 58, 58, 59, 50, 48, 47, 50, 56, 64, 65, 65, 64, 63, 56, 61, 61, 66, 65, 68, 67, 65, 57, 58, 54, 49, 50, 50, 50, 48, 47, 50, 50, 48, 50, 57, 54, 53, 49, 48, 40, 40, 43, 52},
{37, 58, 59, 57, 65, 74, 60, 64, 68, 61, 56, 64, 63, 61, 63, 68, 63, 59, 77, 77, 72, 75, 84, 68, 74, 75, 91, 82, 84, 78, 80, 60, 73, 68, 71, 76, 80, 78, 80, 80, 72, 71, 69, 67, 64, 63, 60, 56, 59, 68, 63, 71, 72, 69, 60, 63, 52, 50, 53, 64, 73, 70, 66, 78, 76, 67, 68, 75, 62, 55, 56, 54, 55, 57, 57, 54, 54, 56, 53, 54, 55, 56, 53, 51, 60, 61, 61, 71, 74, 71, 69, 69, 57, 55, 60, 59, 59, 61, 69, 61}}

// 11 Reading of the 8 sensors, 100 samples per sensor
{{154, 153, 153, 157, 159, 162, 169, 183, 161, 164, 179, 182, 175, 184, 175, 165, 149, 151, 131, 150, 155, 172, 177, 179, 227, 235, 221, 218, 266, 230, 233, 251, 254, 228, 211, 214, 197, 189, 175, 178, 160, 154, 155, 136, 135, 116, 123, 115, 119, 121, 125, 124, 133, 159, 155, 165, 167, 160, 131, 124, 121, 158, 165, 169, 179, 191, 157, 146, 140, 125, 128, 124, 120, 141, 163, 136, 136, 149, 135, 121, 133, 145, 142, 150, 143, 146, 133, 138, 123, 141, 129, 136, 138, 164, 160, 176, 172, 161, 137, 154},
{122, 111, 103, 92, 96, 91, 106, 98, 107, 97, 99, 107, 123, 125, 135, 138, 132, 148, 147, 140, 140, 135, 128, 136, 139, 141, 150, 134, 134, 141, 142, 132, 138, 133, 122, 122, 125, 116, 109, 123, 123, 123, 120, 114, 111, 108, 109, 112, 114, 108, 114, 122, 120, 146, 144, 138, 131, 135, 118, 119, 141, 138, 131, 120, 120, 99, 94, 95, 99, 91, 80, 76, 78, 77, 86, 88, 100, 99, 96, 100, 100, 100, 106, 107, 115, 132, 138, 131, 126, 123, 102, 80, 80, 90, 77, 98, 105, 108, 116, 133},
{373, 361, 322, 297, 294, 286, 309, 298, 302, 322, 302, 300, 312, 294, 258, 265, 250, 249, 265, 273, 273, 277, 273, 312, 290, 311, 333, 348, 320, 360, 352, 328, 323, 322, 303, 336, 340, 361, 353, 350, 316, 338, 299, 283, 263, 252, 247, 273, 295, 303, 310, 316, 280, 275, 285, 281, 295, 312, 299, 298, 326, 283, 284, 336, 332, 377, 372, 364, 317, 334, 265, 272, 307, 319, 293, 345, 338, 297, 285, 310, 239, 252, 270, 268, 252, 271, 265, 250, 240, 254, 235, 227, 240, 280, 272, 315, 359, 365, 352, 396},
{404, 374, 338, 332, 321, 298, 335, 345, 347, 359, 367, 384, 349, 336, 300, 304, 242, 267, 262, 281, 267, 275, 246, 280, 289, 310, 298, 315, 293, 269, 247, 246, 230, 235, 231, 243, 241, 252, 237, 238, 208, 208, 196, 196, 187, 192, 207, 228, 231, 225, 238, 221, 210, 229, 225, 253, 254, 255, 238, 237, 198, 202, 233, 292, 303, 306, 317, 285, 223, 242, 248, 232, 259, 252, 220, 220, 217, 178, 172, 192, 205, 214, 211, 222, 216, 192, 183, 194, 190, 203, 203, 219, 220, 237, 232, 274, 258, 261, 235, 255},
{78, 74, 74, 75, 76, 72, 84, 88, 87, 87, 92, 86, 86, 85, 80, 77, 70, 66, 60, 62, 62, 63, 68, 77, 74, 75, 76, 76, 69, 68, 67, 68, 64, 64, 68, 78, 75, 88, 92, 86, 78, 81, 70, 65, 71, 70, 65, 59, 64, 61, 62, 62, 61, 62, 61, 63, 67, 68, 63, 63, 58, 59, 62, 64, 69, 68, 70, 64, 58, 53, 59, 51, 57, 56, 56, 55, 53, 52, 55, 57, 61, 63, 61, 66, 63, 61, 61, 59, 54, 50, 46, 45, 49, 55, 59, 68, 69, 65, 61, 69},
{65, 63, 60, 57, 53, 51, 53, 48, 48, 50, 51, 53, 57, 54, 64, 69, 66, 62, 68, 58, 51, 48, 54, 46, 46, 46, 44, 36, 42, 41, 48, 49, 53, 53, 53, 50, 51, 49, 45, 47, 45, 45, 41, 39, 45, 44, 43, 44, 45, 38, 42, 42, 45, 45, 48, 44, 46, 49, 51, 49, 50, 49, 45, 40, 38, 35, 36, 34, 35, 36, 36, 33, 33, 32, 29, 30, 30, 32, 35, 35, 36, 38, 35, 34, 37, 40, 39, 39, 36, 34, 26, 27, 27, 29, 33, 34, 32, 32, 33, 36},
{115, 108, 98, 96, 79, 77, 79, 82, 89, 90, 86, 86, 88, 85, 103, 105, 101, 96, 91, 66, 59, 60, 66, 64, 65, 66, 63, 56, 59, 58, 59, 58, 63, 68, 76, 84, 86, 92, 86, 80, 75, 73, 65, 70, 78, 78, 77, 76, 83, 79, 77, 75, 76, 69, 66, 60, 64, 63, 57, 52, 55, 54, 57, 56, 59, 55, 74, 69, 70, 74, 77, 53, 50, 49, 41, 45, 48, 62, 64, 65, 61, 65, 55, 55, 54, 55, 51, 46, 42, 49, 42, 42, 43, 46, 47, 50, 49, 48, 46, 41},
{167, 168, 170, 131, 143, 148, 153, 176, 174, 160, 157, 171, 158, 149, 147, 151, 145, 126, 117, 140, 141, 152, 165, 175, 161, 164, 141, 129, 146, 161, 165, 169, 165, 197, 180, 185, 197, 217, 177, 175, 167, 151, 134, 119, 133, 116, 117, 117, 131, 117, 121, 112, 116, 139, 142, 142, 154, 142, 101, 95, 96, 90, 99, 101, 108, 134, 127, 117, 118, 129, 121, 124, 129, 136, 121, 96, 95, 95, 82, 79, 81, 99, 97, 110, 108, 108, 110, 110, 97, 97, 118, 97, 93, 115, 146, 135, 135, 151, 135, 108}}

// 12 Reading of the 8 sensors, 100 samples per sensor
{{64, 72, 62, 58, 76, 76, 70, 74, 104, 96, 105, 105, 120, 100, 99, 86, 97, 86, 100, 104, 110, 123, 134, 125, 157, 173, 184, 175, 181, 175, 159, 134, 163, 162, 140, 154, 172, 153, 163, 193, 181, 180, 212, 213, 193, 215, 202, 173, 176, 180, 159, 186, 176, 169, 160, 192, 171, 177, 168, 184, 154, 149, 142, 142, 136, 130, 128, 133, 134, 122, 126, 140, 133, 132, 131, 123, 119, 117, 119, 130, 132, 116, 131, 136, 135, 149, 164, 169, 158, 155, 153, 145, 140, 149, 146, 130, 141, 136, 124, 135},
{76, 72, 83, 79, 73, 73, 68, 55, 55, 66, 63, 64, 72, 78, 72, 85, 87, 90, 89, 87, 94, 95, 89, 83, 90, 87, 99, 102, 116, 119, 107, 104, 109, 101, 107, 109, 101, 88, 84, 75, 75, 78, 85, 85, 81, 79, 88, 84, 90, 92, 93, 84, 80, 72, 65, 83, 86, 92, 93, 94, 79, 69, 73, 75, 72, 69, 77, 69, 72, 69, 69, 65, 69, 66, 72, 76, 75, 77, 78, 72, 73, 71, 64, 63, 81, 77, 86, 89, 84, 74, 79, 68, 73, 75, 67, 58, 64, 63, 64, 65},
{227, 258, 287, 283, 297, 261, 243, 215, 216, 252, 267, 254, 261, 375, 374, 371, 382, 395, 312, 291, 323, 327, 321, 299, 289, 294, 292, 298, 328, 330, 297, 347, 352, 338, 365, 364, 300, 290, 268, 228, 233, 270, 295, 316, 312, 295, 322, 295, 292, 308, 310, 273, 279, 266, 247, 268, 274, 273, 272, 274, 262, 238, 269, 297, 317, 311, 335, 299, 287, 260, 306, 320, 342, 330, 336, 292, 241, 205, 218, 239, 251, 284, 281, 276, 316, 329, 324, 342, 342, 307, 300, 309, 360, 358, 336, 320, 304, 275, 267, 273},
{232, 238, 257, 255, 244, 194, 232, 235, 263, 267, 274, 238, 223, 211, 212, 255, 296, 313, 337, 334, 316, 281, 277, 233, 243, 219, 225, 223, 253, 262, 272, 269, 340, 325, 320, 315, 321, 254, 243, 256, 274, 296, 302, 322, 297, 279, 280, 269, 274, 272, 325, 295, 288, 265, 288, 227, 282, 297, 297, 300, 315, 270, 316, 336, 329, 325, 352, 284, 268, 252, 260, 258, 271, 279, 289, 271, 252, 245, 233, 242, 281, 304, 347, 382, 412, 427, 409, 388, 357, 326, 300, 338, 335, 321, 298, 276, 205, 211, 263, 271},
{60, 57, 68, 68, 64, 63, 69, 63, 68, 69, 70, 70, 68, 62, 61, 65, 68, 67, 68, 73, 76, 73, 83, 86, 84, 80, 80, 77, 77, 73, 70, 66, 65, 63, 69, 72, 99, 162, 167, 171, 172, 169, 114, 105, 94, 86, 69, 60, 60, 67, 71, 64, 57, 58, 50, 48, 59, 70, 74, 89, 90, 87, 82, 82, 67, 65, 68, 66, 63, 61, 65, 67, 70, 78, 78, 77, 68, 65, 55, 57, 56, 62, 68, 76, 83, 93, 93, 90, 87, 80, 66, 72, 68, 62, 66, 67, 55, 59, 60, 59},
{78, 76, 81, 77, 64, 61, 61, 50, 50, 54, 57, 54, 56, 56, 55, 53, 56, 56, 57, 54, 55, 52, 55, 56, 60, 57, 58, 55, 59, 61, 62, 62, 69, 63, 56, 55, 59, 74, 76, 84, 86, 83, 63, 60, 57, 55, 59, 60, 60, 57, 66, 64, 63, 62, 66, 66, 62, 67, 71, 69, 63, 68, 69, 69, 67, 63, 68, 62, 57, 53, 51, 49, 50, 53, 63, 68, 63, 62, 62, 60, 57, 61, 62, 58, 58, 59, 51, 53, 60, 53, 47, 52, 49, 44, 45, 48, 43, 43, 40, 41},
{99, 92, 100, 95, 86, 80, 77, 69, 85, 94, 102, 102, 101, 97, 107, 103, 103, 110, 120, 105, 100, 107, 107, 93, 105, 114, 108, 107, 109, 102, 101, 111, 111, 101, 98, 99, 94, 92, 104, 133, 134, 129, 126, 121, 102, 99, 98, 101, 96, 90, 85, 95, 93, 101, 102, 126, 116, 119, 122, 124, 102, 114, 114, 110, 105, 103, 100, 92, 82, 70, 77, 77, 74, 77, 104, 100, 97, 103, 109, 98, 95, 96, 101, 91, 87, 92, 93, 85, 97, 94, 91, 83, 91, 110, 108, 108, 109, 104, 72, 73},
{80, 81, 82, 75, 69, 61, 60, 64, 74, 68, 75, 79, 77, 69, 72, 68, 68, 71, 77, 81, 85, 88, 86, 108, 139, 146, 161, 176, 167, 149, 144, 127, 138, 132, 129, 134, 151, 129, 133, 187, 192, 192, 212, 216, 184, 185, 173, 141, 148, 142, 131, 141, 173, 168, 159, 201, 192, 167, 160, 186, 147, 151, 154, 162, 132, 119, 111, 106, 113, 105, 108, 116, 122, 95, 100, 108, 109, 103, 109, 131, 135, 135, 137, 146, 140, 123, 135, 135, 127, 117, 151, 142, 142, 152, 146, 117, 105, 99, 89, 91}}

// 13 Reading of the 8 sensors, 100 samples per sensor
{{107, 115, 117, 115, 99, 108, 99, 109, 126, 141, 134, 144, 143, 122, 106, 120, 109, 124, 127, 117, 182, 194, 183, 190, 190, 129, 126, 137, 139, 145, 142, 124, 108, 98, 88, 70, 76, 79, 69, 74, 83, 81, 75, 80, 78, 93, 103, 114, 110, 143, 152, 145, 140, 138, 116, 90, 87, 86, 106, 113, 114, 118, 128, 119, 96, 103, 97, 80, 82, 84, 66, 68, 77, 62, 56, 76, 82, 76, 79, 94, 80, 73, 93, 93, 80, 77, 89, 68, 69, 70, 80, 68, 71, 94, 95, 88, 87, 96, 76, 71},
{71, 67, 67, 62, 70, 71, 70, 71, 81, 70, 79, 80, 77, 71, 78, 78, 78, 86, 85, 89, 84, 100, 98, 95, 87, 89, 79, 72, 74, 74, 74, 68, 71, 78, 77, 71, 67, 67, 61, 56, 55, 57, 53, 44, 46, 52, 49, 50, 58, 89, 104, 106, 108, 105, 87, 75, 74, 73, 75, 68, 62, 60, 57, 57, 55, 49, 53, 52, 55, 59, 61, 58, 61, 56, 51, 67, 69, 67, 65, 69, 68, 63, 62, 62, 59, 35, 39, 39, 44, 44, 53, 56, 56, 51, 56, 54, 54, 59, 63, 58},
{281, 287, 295, 302, 299, 319, 318, 294, 292, 280, 304, 312, 330, 355, 347, 309, 314, 301, 277, 280, 263, 316, 333, 315, 341, 355, 328, 327, 326, 319, 331, 305, 297, 319, 286, 265, 274, 259, 251, 241, 231, 232, 220, 184, 188, 187, 190, 203, 218, 253, 265, 264, 255, 255, 238, 244, 265, 286, 274, 254, 236, 189, 158, 195, 212, 221, 237, 251, 234, 229, 263, 248, 237, 253, 258, 254, 261, 261, 243, 239, 247, 245, 242, 239, 232, 179, 188, 188, 190, 199, 196, 195, 189, 170, 171, 183, 185, 201, 204, 188},
{305, 303, 294, 260, 210, 209, 213, 232, 216, 231, 220, 225, 206, 227, 213, 207, 218, 222, 211, 210, 211, 205, 191, 174, 196, 190, 176, 199, 202, 187, 188, 176, 162, 171, 171, 175, 183, 183, 166, 152, 151, 156, 140, 142, 144, 148, 137, 130, 164, 207, 232, 245, 249, 231, 217, 204, 206, 201, 205, 190, 175, 164, 196, 201, 192, 200, 201, 197, 203, 223, 246, 247, 234, 254, 238, 260, 311, 331, 320, 319, 286, 242, 226, 204, 209, 198, 176, 151, 170, 169, 170, 182, 179, 159, 152, 149, 141, 144, 154, 156},
{83, 79, 75, 74, 66, 63, 63, 65, 68, 64, 65, 66, 62, 61, 57, 55, 52, 57, 58, 62, 64, 75, 73, 73, 74, 75, 66, 71, 70, 69, 65, 60, 53, 49, 43, 43, 47, 53, 52, 52, 50, 51, 43, 44, 48, 54, 55, 54, 65, 68, 75, 79, 80, 71, 69, 65, 58, 60, 61, 57, 55, 55, 62, 64, 63, 62, 60, 51, 53, 55, 57, 57, 61, 60, 58, 52, 57, 54, 49, 55, 68, 70, 68, 71, 70, 60, 56, 61, 60, 61, 59, 58, 52, 51, 45, 43, 46, 47, 46, 48},
{86, 86, 84, 84, 84, 72, 70, 68, 71, 68, 86, 88, 83, 80, 82, 66, 61, 79, 80, 76, 75, 81, 67, 66, 67, 67, 62, 58, 54, 52, 57, 64, 64, 62, 61, 59, 58, 62, 60, 61, 58, 50, 46, 50, 58, 56, 57, 54, 57, 60, 65, 64, 65, 69, 64, 62, 67, 66, 60, 60, 63, 57, 65, 65, 61, 57, 62, 55, 58, 60, 64, 58, 61, 61, 60, 51, 54, 51, 48, 55, 58, 65, 64, 66, 60, 57, 50, 51, 50, 49, 53, 51, 47, 45, 48, 44, 41, 42, 43, 41},
{130, 126, 119, 125, 139, 118, 116, 128, 120, 103, 114, 113, 99, 103, 139, 128, 127, 155, 159, 126, 132, 138, 107, 107, 108, 106, 106, 109, 111, 106, 106, 108, 104, 87, 92, 84, 106, 113, 112, 109, 114, 97, 96, 97, 112, 111, 106, 98, 105, 100, 106, 107, 110, 111, 104, 98, 90, 100, 108, 118, 121, 126, 124, 119, 135, 147, 144, 139, 147, 127, 103, 97, 95, 76, 63, 65, 81, 83, 87, 146, 160, 160, 164, 167, 155, 141, 140, 137, 134, 109, 128, 122, 116, 125, 120, 100, 100, 117, 121, 114},
{95, 117, 118, 120, 119, 112, 86, 84, 78, 71, 86, 91, 93, 95, 99, 86, 91, 114, 109, 105, 101, 97, 87, 98, 97, 102, 116, 99, 90, 90, 89, 68, 75, 79, 78, 78, 75, 67, 67, 67, 59, 67, 78, 73, 74, 94, 96, 96, 95, 98, 82, 73, 81, 81, 80, 75, 74, 57, 59, 81, 99, 102, 113, 119, 120, 112, 110, 96, 89, 68, 55, 52, 58, 52, 45, 44, 48, 50, 70, 82, 112, 115, 117, 120, 132, 114, 113, 114, 109, 94, 86, 86, 88, 105, 96, 97, 95, 111, 92, 99}}

// 14 Reading of the 8 sensors, 100 samples per sensor
{{108, 140, 148, 181, 196, 210, 194, 255, 234, 230, 227, 225, 143, 147, 140, 133, 144, 145, 142, 139, 143, 138, 145, 165, 172, 162, 190, 192, 169, 180, 182, 146, 132, 159, 151, 142, 141, 146, 121, 112, 133, 141, 141, 153, 171, 156, 143, 155, 170, 145, 156, 190, 183, 155, 165, 164, 175, 175, 188, 191, 204, 178, 192, 184, 181, 165, 167, 142, 141, 154, 154, 149, 196, 192, 173, 183, 173, 135, 145, 157, 157, 171, 171, 165, 152, 153, 141, 135, 146, 146, 133, 139, 148, 143, 155, 171, 173, 162, 176, 219},
{115, 129, 133, 139, 140, 125, 104, 107, 103, 90, 105, 103, 107, 101, 98, 83, 93, 103, 113, 120, 126, 130, 117, 117, 118, 111, 104, 100, 96, 87, 84, 90, 93, 95, 91, 98, 86, 94, 89, 99, 93, 98, 98, 108, 103, 103, 97, 90, 85, 91, 91, 97, 92, 83, 81, 84, 86, 95, 100, 98, 98, 97, 89, 99, 107, 109, 110, 107, 95, 91, 85, 86, 92, 93, 91, 95, 88, 97, 98, 94, 99, 103, 89, 91, 90, 80, 76, 77, 74, 77, 78, 72, 79, 80, 83, 84, 86, 84, 85, 81},
{394, 427, 444, 436, 440, 357, 282, 277, 277, 270, 292, 279, 305, 290, 271, 247, 259, 224, 235, 258, 260, 288, 294, 324, 330, 333, 293, 292, 254, 225, 233, 249, 240, 239, 248, 263, 264, 306, 321, 328, 311, 306, 286, 289, 283, 287, 291, 264, 238, 258, 270, 279, 279, 291, 264, 243, 214, 200, 172, 169, 171, 192, 189, 238, 255, 272, 288, 283, 246, 230, 194, 172, 208, 214, 217, 248, 229, 219, 232, 235, 234, 243, 245, 229, 235, 203, 193, 167, 191, 230, 259, 272, 278, 291, 250, 217, 197, 203, 195, 209},
{334, 337, 340, 328, 323, 260, 220, 229, 224, 205, 229, 221, 258, 255, 244, 228, 238, 219, 240, 262, 268, 249, 220, 207, 191, 175, 169, 186, 184, 194, 194, 215, 219, 223, 221, 239, 225, 211, 220, 227, 210, 204, 226, 222, 225, 238, 235, 252, 263, 249, 250, 256, 247, 238, 241, 221, 223, 204, 203, 207, 207, 193, 211, 240, 234, 268, 278, 253, 262, 260, 234, 235, 246, 193, 193, 199, 185, 173, 210, 201, 224, 226, 233, 204, 239, 228, 226, 218, 221, 212, 196, 232, 275, 402, 447, 485, 488, 473, 403, 364},
{88, 84, 84, 84, 78, 77, 73, 72, 69, 72, 73, 75, 76, 76, 68, 61, 73, 73, 73, 76, 83, 66, 58, 58, 62, 52, 52, 53, 53, 48, 48, 53, 58, 62, 66, 67, 61, 55, 56, 58, 60, 68, 71, 69, 64, 62, 59, 63, 63, 71, 71, 67, 62, 58, 47, 48, 47, 50, 51, 50, 54, 54, 64, 69, 71, 71, 73, 66, 63, 69, 68, 68, 63, 64, 54, 59, 56, 58, 74, 77, 73, 75, 76, 63, 66, 68, 65, 62, 58, 54, 52, 58, 68, 78, 79, 81, 78, 71, 61, 57},
{70, 65, 70, 76, 79, 78, 76, 73, 66, 61, 71, 70, 69, 68, 64, 58, 77, 82, 83, 84, 87, 72, 63, 64, 71, 69, 73, 77, 74, 69, 65, 55, 55, 53, 46, 46, 48, 48, 49, 56, 53, 56, 56, 55, 54, 62, 70, 74, 76, 74, 71, 60, 58, 54, 55, 50, 63, 64, 66, 65, 72, 68, 60, 57, 60, 55, 48, 58, 58, 58, 57, 56, 48, 53, 51, 50, 51, 52, 52, 51, 50, 51, 57, 54, 54, 54, 57, 52, 51, 52, 56, 56, 52, 49, 50, 49, 46, 46, 51, 53},
{97, 88, 93, 102, 113, 111, 111, 114, 112, 105, 111, 109, 113, 112, 108, 107, 134, 125, 130, 134, 134, 113, 111, 99, 92, 107, 111, 114, 125, 134, 125, 116, 121, 109, 95, 92, 91, 79, 82, 113, 112, 119, 135, 130, 110, 111, 105, 96, 108, 107, 103, 99, 101, 89, 85, 88, 121, 134, 135, 138, 152, 135, 117, 119, 123, 100, 93, 100, 95, 92, 96, 95, 85, 87, 81, 76, 73, 75, 76, 79, 79, 78, 84, 88, 80, 83, 90, 87, 83, 88, 92, 87, 78, 71, 67, 63, 67, 80, 86, 86},
{120, 127, 142, 159, 151, 175, 177, 195, 178, 180, 158, 152, 126, 152, 155, 162, 170, 152, 140, 139, 140, 139, 146, 153, 150, 142, 144, 155, 135, 135, 154, 151, 127, 136, 129, 127, 122, 131, 123, 138, 122, 118, 123, 136, 118, 114, 113, 119, 107, 112, 121, 128, 119, 127, 157, 155, 173, 202, 199, 190, 219, 213, 187, 197, 192, 163, 163, 161, 147, 137, 142, 142, 150, 145, 157, 142, 117, 127, 139, 127, 133, 144, 128, 133, 126, 148, 139, 133, 125, 130, 102, 132, 139, 131, 125, 130, 133, 123, 132, 153}}

// 15 Reading of the 8 sensors, 100 samples per sensor
{{97, 99, 71, 63, 76, 68, 65, 87, 95, 91, 102, 104, 88, 92, 90, 99, 113, 115, 110, 112, 91, 74, 89, 87, 81, 98, 103, 87, 130, 136, 127, 131, 130, 90, 121, 122, 114, 115, 115, 71, 65, 63, 65, 66, 67, 67, 71, 65, 55, 61, 63, 58, 66, 70, 65, 60, 66, 70, 64, 62, 64, 68, 58, 63, 84, 85, 77, 92, 90, 76, 83, 85, 68, 79, 79, 70, 89, 92, 86, 88, 88, 68, 74, 75, 69, 82, 82, 74, 80, 79, 63, 77, 79, 68, 84, 85, 75, 78, 77, 62},
{86, 85, 76, 69, 72, 72, 75, 105, 118, 129, 129, 131, 125, 114, 106, 108, 107, 87, 86, 84, 82, 84, 87, 88, 85, 90, 87, 86, 85, 89, 81, 86, 92, 92, 88, 88, 86, 83, 74, 77, 77, 71, 64, 73, 72, 74, 82, 87, 91, 89, 90, 83, 87, 77, 72, 70, 70, 64, 72, 74, 69, 71, 67, 59, 60, 64, 64, 63, 70, 68, 70, 72, 72, 63, 62, 59, 51, 47, 48, 48, 51, 55, 57, 61, 68, 61, 61, 62, 56, 47, 49, 44, 49, 46, 51, 53, 56, 79, 84, 83},
{188, 215, 235, 273, 329, 353, 344, 361, 373, 392, 364, 370, 420, 393, 345, 359, 391, 308, 306, 313, 334, 313, 330, 352, 383, 398, 409, 432, 445, 429, 392, 390, 391, 376, 347, 360, 343, 314, 282, 287, 287, 272, 244, 249, 277, 257, 272, 288, 340, 329, 362, 347, 343, 289, 277, 236, 245, 272, 291, 277, 262, 269, 230, 197, 219, 226, 217, 206, 246, 263, 308, 299, 305, 288, 275, 238, 240, 233, 226, 212, 182, 198, 247, 254, 274, 272, 258, 241, 215, 172, 184, 177, 135, 133, 177, 190, 208, 303, 318, 312},
{211, 219, 231, 231, 224, 240, 238, 227, 244, 267, 269, 272, 296, 311, 338, 336, 372, 375, 358, 337, 318, 309, 332, 349, 323, 345, 323, 309, 304, 356, 347, 357, 338, 367, 345, 335, 318, 307, 262, 225, 206, 188, 183, 173, 172, 189, 257, 266, 315, 336, 332, 297, 298, 235, 221, 207, 206, 213, 227, 206, 204, 223, 222, 214, 222, 241, 211, 190, 187, 212, 209, 203, 206, 231, 201, 192, 243, 243, 209, 232, 231, 191, 228, 231, 216, 224, 215, 173, 183, 172, 173, 181, 197, 180, 190, 181, 181, 227, 239, 241},
{62, 68, 62, 59, 64, 58, 54, 54, 60, 66, 84, 84, 85, 86, 85, 76, 89, 86, 85, 86, 79, 65, 75, 74, 66, 69, 73, 63, 66, 68, 64, 72, 73, 74, 80, 78, 66, 66, 59, 51, 49, 45, 48, 46, 41, 51, 55, 52, 59, 62, 55, 54, 62, 56, 56, 54, 54, 53, 65, 63, 65, 69, 65, 61, 65, 67, 62, 59, 53, 48, 42, 39, 39, 44, 42, 45, 52, 62, 57, 60, 57, 51, 47, 44, 43, 46, 45, 42, 48, 45, 50, 52, 58, 56, 60, 59, 62, 67, 70, 69},
{99, 108, 103, 103, 106, 97, 95, 99, 94, 95, 111, 110, 110, 107, 101, 85, 80, 75, 77, 81, 73, 78, 79, 86, 86, 86, 82, 78, 69, 77, 79, 73, 85, 89, 77, 76, 79, 69, 64, 63, 59, 53, 69, 70, 71, 80, 81, 65, 63, 61, 56, 69, 72, 68, 70, 65, 54, 51, 54, 53, 53, 45, 45, 46, 56, 60, 62, 70, 73, 66, 69, 68, 61, 60, 61, 55, 55, 55, 52, 58, 63, 69, 67, 63, 61, 55, 47, 53, 60, 56, 57, 58, 56, 50, 51, 53, 52, 55, 60, 60},
{138, 137, 129, 146, 150, 133, 127, 127, 113, 110, 148, 184, 194, 188, 187, 162, 126, 116, 126, 122, 121, 122, 123, 109, 109, 102, 120, 114, 114, 142, 145, 128, 154, 158, 131, 134, 133, 105, 92, 110, 98, 101, 113, 117, 111, 119, 111, 94, 95, 85, 76, 96, 103, 97, 109, 109, 98, 98, 101, 88, 85, 84, 89, 88, 99, 116, 112, 129, 141, 136, 143, 145, 122, 116, 116, 90, 106, 112, 105, 117, 135, 125, 116, 114, 101, 80, 71, 80, 89, 82, 88, 103, 104, 99, 101, 101, 85, 76, 102, 102},
{71, 63, 60, 51, 61, 55, 57, 61, 65, 60, 68, 67, 68, 65, 68, 64, 65, 70, 73, 73, 73, 70, 67, 66, 58, 62, 60, 52, 63, 77, 74, 76, 77, 80, 68, 66, 67, 68, 51, 52, 62, 60, 61, 65, 65, 65, 78, 77, 74, 79, 72, 57, 60, 58, 49, 54, 52, 51, 51, 60, 54, 53, 60, 62, 60, 70, 70, 66, 75, 72, 67, 69, 66, 56, 57, 53, 52, 55, 59, 55, 57, 57, 56, 50, 51, 51, 47, 50, 60, 58, 57, 72, 67, 61, 73, 74, 59, 64, 64, 56}}

// 16 Reading of the 8 sensors, 100 samples per sensor
{{138, 144, 142, 124, 145, 137, 125, 123, 118, 82, 90, 91, 86, 92, 82, 67, 63, 78, 78, 81, 89, 90, 75, 72, 90, 80, 80, 94, 104, 91, 106, 107, 103, 125, 129, 122, 128, 134, 113, 112, 105, 99, 118, 106, 104, 114, 124, 108, 112, 111, 101, 86, 81, 103, 104, 109, 111, 103, 82, 106, 106, 107, 114, 151, 133, 134, 133, 145, 117, 117, 117, 135, 137, 124, 122, 131, 112, 84, 83, 97, 80, 75, 69, 67, 44, 71, 80, 84, 97, 99, 81, 75, 77, 66, 66, 115, 126, 125, 129, 132},
{73, 66, 68, 73, 70, 69, 67, 71, 66, 78, 86, 85, 83, 82, 67, 60, 59, 62, 66, 73, 75, 77, 70, 72, 70, 64, 62, 64, 69, 69, 73, 73, 75, 67, 72, 77, 84, 83, 81, 73, 66, 58, 58, 66, 66, 72, 74, 74, 70, 72, 66, 66, 67, 70, 68, 69, 69, 68, 69, 71, 68, 75, 75, 81, 85, 91, 85, 89, 77, 71, 66, 65, 61, 58, 57, 61, 59, 55, 59, 66, 69, 73, 87, 98, 93, 91, 91, 80, 71, 81, 78, 77, 80, 74, 60, 61, 68, 63, 69, 70},
{260, 263, 248, 258, 264, 273, 284, 308, 304, 324, 330, 316, 330, 326, 298, 291, 300, 271, 253, 255, 260, 249, 228, 230, 220, 202, 205, 207, 202, 193, 180, 161, 184, 201, 213, 249, 278, 286, 275, 302, 288, 269, 236, 239, 193, 201, 209, 252, 255, 282, 262, 271, 257, 261, 231, 231, 211, 177, 218, 225, 235, 243, 252, 208, 231, 270, 278, 280, 285, 264, 215, 224, 215, 212, 216, 217, 188, 202, 196, 183, 259, 253, 295, 310, 316, 273, 276, 251, 233, 252, 254, 275, 262, 266, 237, 232, 223, 226, 253, 260},
{198, 172, 168, 168, 168, 200, 206, 230, 250, 260, 267, 267, 268, 267, 254, 239, 257, 251, 240, 252, 264, 247, 230, 227, 199, 182, 175, 177, 177, 185, 157, 155, 176, 173, 161, 172, 197, 189, 177, 205, 223, 200, 190, 194, 182, 185, 199, 189, 187, 183, 153, 171, 199, 204, 203, 206, 174, 147, 134, 121, 164, 176, 171, 178, 198, 191, 187, 187, 219, 208, 174, 237, 251, 230, 236, 240, 176, 170, 159, 145, 164, 172, 155, 158, 164, 144, 129, 131, 128, 123, 129, 150, 154, 165, 161, 192, 220, 228, 228, 233},
{72, 69, 68, 71, 64, 62, 61, 69, 68, 75, 76, 76, 74, 74, 66, 58, 60, 54, 51, 58, 61, 63, 60, 60, 56, 52, 49, 50, 49, 45, 45, 44, 44, 44, 45, 45, 42, 40, 44, 49, 52, 54, 53, 48, 54, 56, 56, 58, 64, 57, 52, 51, 55, 50, 48, 49, 47, 43, 42, 46, 49, 50, 49, 49, 56, 62, 59, 57, 63, 54, 46, 58, 67, 63, 63, 62, 56, 45, 42, 44, 46, 46, 46, 47, 51, 52, 49, 47, 52, 46, 52, 53, 54, 56, 59, 56, 58, 62, 58, 55},
{55, 68, 71, 67, 74, 75, 65, 60, 60, 57, 56, 57, 56, 56, 48, 53, 54, 53, 51, 52, 46, 46, 47, 51, 51, 51, 51, 50, 46, 47, 45, 42, 44, 44, 45, 46, 48, 51, 52, 53, 53, 60, 54, 56, 58, 65, 60, 63, 67, 66, 60, 56, 53, 46, 39, 38, 41, 44, 49, 53, 50, 53, 50, 51, 49, 56, 62, 67, 71, 70, 67, 62, 60, 58, 59, 57, 61, 58, 50, 50, 55, 53, 53, 55, 55, 57, 66, 72, 70, 70, 67, 56, 46, 47, 53, 50, 48, 47, 47, 41},
{79, 91, 93, 86, 106, 112, 102, 94, 95, 103, 100, 107, 103, 106, 76, 74, 69, 72, 76, 82, 81, 79, 85, 91, 87, 89, 93, 92, 76, 79, 82, 76, 69, 73, 77, 72, 73, 85, 86, 80, 80, 111, 109, 118, 120, 130, 107, 109, 115, 114, 107, 104, 93, 73, 71, 64, 63, 63, 68, 64, 59, 68, 75, 70, 67, 81, 93, 93, 97, 99, 92, 75, 74, 65, 66, 78, 91, 93, 93, 94, 83, 77, 78, 80, 77, 84, 103, 113, 113, 115, 115, 91, 74, 74, 91, 82, 83, 80, 102, 86},
{119, 125, 129, 85, 104, 113, 110, 107, 112, 92, 88, 86, 90, 97, 88, 83, 87, 84, 63, 63, 61, 53, 45, 63, 66, 61, 64, 80, 70, 80, 100, 107, 108, 117, 126, 120, 115, 132, 127, 119, 114, 119, 90, 88, 98, 102, 95, 103, 99, 82, 70, 69, 92, 99, 102, 110, 109, 80, 69, 69, 63, 105, 111, 115, 112, 114, 82, 78, 101, 103, 106, 111, 112, 89, 102, 116, 110, 115, 114, 101, 72, 69, 52, 50, 49, 73, 78, 87, 89, 89, 78, 75, 65, 78, 81, 76, 81, 83, 67, 68}}

// 17 Reading of the 8 sensors, 100 samples per sensor
{{68, 75, 54, 55, 56, 76, 71, 70, 68, 85, 71, 66, 65, 76, 55, 51, 51, 72, 61, 62, 62, 76, 63, 63, 63, 72, 61, 56, 59, 73, 65, 67, 71, 82, 69, 74, 82, 80, 69, 67, 78, 66, 63, 74, 84, 71, 71, 90, 77, 67, 67, 82, 65, 66, 79, 79, 64, 83, 85, 76, 85, 84, 62, 58, 69, 57, 56, 56, 76, 65, 63, 71, 80, 62, 58, 70, 65, 55, 77, 77, 67, 68, 82, 64, 65, 87, 88, 75, 75, 88, 85, 94, 95, 93, 82, 86, 73, 75, 78, 90},
{65, 58, 56, 57, 46, 48, 59, 62, 61, 63, 64, 59, 57, 57, 58, 55, 55, 51, 52, 54, 53, 53, 54, 49, 46, 51, 51, 48, 48, 48, 45, 47, 49, 51, 53, 57, 51, 55, 58, 55, 51, 52, 49, 48, 48, 53, 56, 57, 53, 56, 55, 58, 54, 60, 61, 61, 59, 70, 70, 67, 70, 68, 56, 56, 61, 51, 51, 51, 48, 51, 52, 53, 55, 53, 41, 43, 44, 45, 48, 54, 51, 48, 44, 46, 41, 51, 63, 66, 63, 66, 62, 50, 48, 46, 45, 48, 47, 48, 53, 50},
{260, 243, 253, 254, 226, 196, 214, 197, 203, 205, 203, 211, 213, 196, 206, 205, 185, 176, 182, 172, 166, 175, 178, 178, 180, 194, 180, 175, 167, 164, 150, 163, 163, 167, 175, 182, 165, 179, 205, 198, 210, 213, 192, 168, 173, 183, 186, 215, 225, 226, 232, 236, 214, 231, 259, 239, 249, 255, 291, 260, 283, 281, 272, 240, 237, 201, 194, 210, 160, 191, 201, 190, 168, 174, 136, 139, 171, 219, 226, 232, 232, 214, 171, 188, 215, 232, 234, 236, 217, 240, 260, 263, 270, 279, 235, 202, 196, 206, 217, 220},
{232, 230, 234, 238, 184, 164, 174, 166, 142, 144, 147, 134, 130, 143, 154, 145, 147, 173, 163, 168, 164, 172, 158, 152, 147, 179, 165, 169, 176, 170, 144, 187, 179, 177, 171, 167, 123, 152, 173, 170, 185, 193, 175, 148, 165, 154, 146, 146, 146, 138, 138, 176, 171, 184, 213, 208, 196, 206, 203, 166, 173, 155, 137, 138, 141, 135, 132, 138, 127, 127, 131, 125, 124, 137, 128, 145, 174, 193, 185, 187, 180, 159, 130, 131, 148, 155, 146, 147, 157, 149, 133, 140, 141, 134, 124, 124, 126, 135, 145, 151},
{78, 69, 69, 73, 66, 51, 57, 55, 46, 46, 56, 49, 49, 49, 51, 42, 44, 49, 51, 50, 51, 54, 49, 46, 51, 50, 51, 53, 55, 53, 60, 67, 64, 61, 59, 50, 35, 40, 50, 48, 48, 51, 50, 46, 57, 59, 58, 59, 59, 50, 51, 58, 55, 53, 56, 54, 52, 54, 57, 54, 52, 45, 41, 39, 39, 42, 43, 47, 44, 45, 42, 44, 39, 46, 48, 56, 57, 61, 57, 55, 49, 44, 38, 36, 36, 36, 38, 46, 49, 52, 53, 56, 51, 49, 48, 48, 42, 40, 44, 41},
{82, 75, 73, 68, 57, 47, 37, 46, 54, 55, 60, 63, 59, 60, 63, 60, 60, 58, 52, 52, 52, 52, 53, 52, 51, 49, 47, 59, 60, 61, 65, 66, 53, 50, 48, 44, 43, 48, 52, 53, 51, 50, 44, 42, 41, 41, 38, 44, 41, 40, 49, 58, 55, 56, 62, 56, 53, 59, 60, 57, 59, 56, 50, 47, 51, 48, 45, 47, 50, 53, 51, 57, 61, 67, 63, 67, 72, 67, 59, 55, 51, 35, 39, 38, 40, 41, 46, 44, 48, 46, 52, 54, 58, 57, 58, 57, 58, 57, 54, 55},
{138, 103, 103, 95, 85, 82, 89, 97, 101, 84, 89, 82, 74, 84, 88, 84, 86, 84, 75, 77, 72, 80, 86, 81, 82, 83, 70, 90, 92, 94, 100, 102, 75, 88, 85, 82, 86, 109, 102, 99, 94, 89, 66, 61, 60, 62, 70, 71, 69, 79, 85, 79, 82, 94, 90, 95, 104, 100, 89, 88, 85, 79, 75, 84, 97, 96, 89, 92, 92, 80, 81, 82, 101, 103, 104, 99, 126, 108, 104, 103, 107, 75, 81, 77, 84, 78, 82, 77, 94, 92, 94, 96, 113, 104, 94, 95, 104, 91, 91, 91},
{65, 63, 56, 53, 63, 59, 60, 61, 59, 58, 60, 55, 53, 55, 46, 58, 59, 63, 62, 62, 51, 57, 66, 68, 79, 81, 76, 77, 78, 69, 69, 68, 57, 59, 55, 66, 63, 73, 70, 73, 63, 62, 49, 56, 57, 60, 62, 65, 58, 60, 57, 58, 53, 57, 51, 64, 62, 63, 60, 70, 61, 61, 58, 58, 51, 47, 50, 55, 59, 57, 54, 52, 47, 46, 42, 46, 58, 57, 59, 65, 65, 53, 63, 67, 64, 68, 69, 63, 68, 69, 68, 72, 67, 56, 67, 77, 75, 78, 80, 79}}

// 18 Reading of the 8 sensors, 100 samples per sensor
{{96, 90, 107, 118, 112, 117, 113, 81, 94, 124, 122, 124, 132, 112, 110, 111, 109, 106, 109, 84, 91, 90, 94, 88, 80, 76, 95, 89, 105, 105, 99, 99, 126, 115, 116, 118, 108, 101, 102, 108, 107, 117, 103, 110, 108, 107, 115, 114, 105, 119, 129, 114, 115, 115, 146, 136, 138, 141, 142, 98, 109, 99, 95, 97, 106, 98, 108, 99, 98, 106, 106, 100, 120, 119, 100, 114, 127, 113, 117, 125, 126, 112, 120, 117, 104, 93, 91, 77, 84, 100, 89, 93, 103, 95, 77, 77, 76, 53, 51, 56},
{86, 83, 78, 77, 73, 69, 70, 59, 63, 61, 76, 85, 91, 89, 91, 78, 66, 64, 65, 64, 68, 69, 66, 64, 62, 70, 75, 72, 74, 78, 65, 58, 63, 60, 57, 61, 60, 62, 65, 61, 60, 66, 70, 79, 82, 82, 80, 72, 68, 66, 69, 64, 63, 54, 53, 50, 65, 66, 66, 67, 74, 63, 66, 65, 62, 53, 60, 57, 56, 62, 61, 59, 57, 58, 55, 53, 53, 58, 58, 56, 57, 59, 62, 63, 67, 68, 66, 63, 65, 63, 60, 61, 58, 55, 52, 55, 63, 68, 66, 85},
{304, 301, 292, 305, 291, 291, 287, 304, 291, 300, 326, 345, 316, 303, 315, 283, 225, 228, 292, 280, 273, 289, 306, 252, 240, 284, 304, 283, 305, 321, 327, 331, 355, 331, 318, 290, 258, 226, 227, 233, 205, 231, 252, 261, 246, 251, 234, 229, 226, 227, 253, 245, 231, 227, 223, 199, 220, 215, 222, 225, 223, 197, 212, 209, 213, 241, 250, 237, 231, 231, 188, 209, 215, 222, 227, 236, 207, 205, 193, 175, 174, 178, 180, 209, 202, 202, 203, 194, 184, 219, 226, 232, 252, 246, 216, 210, 257, 250, 239, 281},
{238, 245, 238, 258, 235, 267, 268, 281, 248, 253, 258, 242, 249, 254, 268, 229, 229, 209, 205, 199, 188, 211, 228, 234, 273, 289, 286, 276, 309, 289, 297, 288, 285, 241, 216, 187, 197, 178, 180, 174, 178, 173, 192, 198, 189, 202, 205, 196, 185, 213, 219, 208, 237, 238, 235, 213, 263, 281, 280, 277, 286, 260, 198, 205, 196, 230, 211, 234, 255, 259, 211, 243, 238, 206, 212, 234, 208, 208, 221, 217, 205, 207, 211, 211, 191, 203, 207, 195, 241, 250, 234, 229, 253, 194, 190, 194, 190, 178, 176, 182},
{60, 58, 54, 61, 61, 64, 63, 61, 54, 54, 61, 62, 63, 66, 76, 67, 66, 67, 67, 61, 61, 62, 62, 60, 65, 64, 67, 72, 76, 68, 72, 73, 70, 67, 65, 61, 56, 57, 58, 55, 58, 63, 61, 67, 67, 74, 74, 74, 63, 63, 52, 51, 47, 55, 56, 58, 55, 63, 58, 62, 60, 67, 62, 63, 62, 68, 66, 67, 68, 66, 61, 54, 55, 50, 50, 48, 54, 51, 55, 58, 62, 63, 68, 69, 69, 69, 69, 73, 73, 74, 72, 69, 58, 57, 56, 63, 65, 65, 64, 69},
{59, 70, 68, 65, 68, 71, 63, 64, 66, 63, 51, 52, 59, 55, 55, 58, 57, 51, 61, 64, 60, 70, 72, 69, 73, 76, 66, 61, 64, 56, 60, 68, 71, 65, 67, 68, 60, 61, 62, 63, 56, 68, 71, 73, 71, 73, 74, 68, 62, 60, 60, 48, 48, 55, 58, 59, 57, 58, 55, 62, 62, 64, 69, 68, 69, 74, 72, 68, 68, 55, 48, 51, 54, 53, 57, 62, 62, 56, 58, 56, 51, 47, 52, 56, 56, 54, 60, 68, 64, 65, 67, 68, 55, 54, 53, 52, 49, 51, 53, 54},
{97, 106, 99, 86, 91, 98, 86, 87, 102, 102, 94, 100, 101, 87, 83, 86, 81, 86, 94, 92, 96, 113, 107, 98, 125, 126, 112, 113, 144, 123, 122, 133, 140, 117, 126, 126, 112, 112, 105, 102, 102, 109, 124, 135, 123, 123, 128, 102, 89, 98, 103, 87, 93, 94, 90, 78, 84, 89, 90, 104, 110, 106, 113, 112, 109, 125, 126, 118, 119, 114, 94, 100, 114, 112, 105, 109, 105, 85, 89, 104, 97, 92, 110, 112, 107, 112, 119, 106, 99, 95, 88, 86, 80, 82, 83, 86, 89, 93, 94, 87},
{58, 64, 67, 65, 73, 78, 73, 70, 73, 77, 75, 71, 72, 73, 58, 59, 57, 56, 52, 54, 60, 74, 73, 71, 71, 64, 50, 54, 60, 60, 69, 74, 84, 87, 86, 87, 83, 73, 73, 75, 73, 78, 84, 80, 83, 77, 75, 68, 67, 69, 72, 76, 85, 82, 80, 82, 78, 68, 69, 84, 89, 83, 84, 84, 67, 67, 74, 70, 75, 88, 82, 79, 84, 80, 69, 69, 68, 69, 74, 76, 80, 77, 71, 71, 62, 53, 58, 59, 58, 60, 60, 56, 58, 57, 53, 59, 62, 57, 55, 56}}

// 19 Reading of the 8 sensors, 100 samples per sensor
{{51, 67, 61, 62, 67, 70, 73, 81, 86, 96, 92, 85, 95, 100, 87, 96, 102, 89, 80, 93, 119, 117, 119, 119, 110, 88, 79, 75, 88, 106, 90, 104, 106, 97, 81, 105, 101, 104, 102, 103, 83, 93, 86, 88, 89, 91, 71, 80, 103, 98, 101, 112, 107, 97, 101, 96, 81, 94, 82, 74, 92, 95, 82, 78, 89, 69, 80, 109, 121, 116, 123, 113, 93, 91, 95, 87, 93, 92, 81, 77, 139, 141, 139, 144, 148, 109, 105, 105, 107, 113, 99, 98, 102, 92, 77, 81, 75, 87, 97, 93},
{61, 65, 61, 56, 56, 54, 51, 58, 63, 70, 71, 70, 66, 65, 65, 64, 66, 63, 58, 60, 70, 73, 76, 74, 66, 61, 65, 68, 74, 79, 78, 82, 76, 74, 68, 70, 59, 62, 58, 66, 67, 65, 66, 66, 60, 53, 53, 59, 59, 56, 63, 67, 70, 77, 82, 79, 77, 69, 63, 58, 53, 53, 50, 49, 48, 53, 54, 57, 58, 57, 55, 55, 49, 50, 53, 53, 52, 53, 51, 47, 60, 58, 61, 67, 65, 62, 59, 65, 62, 67, 59, 58, 48, 43, 41, 45, 47, 51, 57, 63},
{251, 256, 213, 182, 186, 188, 195, 207, 217, 214, 218, 202, 187, 185, 236, 241, 258, 256, 251, 222, 240, 220, 227, 219, 224, 196, 255, 245, 249, 239, 252, 212, 224, 224, 219, 200, 197, 186, 208, 222, 233, 233, 235, 207, 189, 187, 184, 212, 220, 224, 272, 270, 257, 261, 259, 205, 203, 249, 242, 246, 248, 251, 192, 198, 199, 201, 208, 212, 218, 209, 199, 181, 194, 185, 214, 216, 234, 217, 221, 199, 187, 170, 182, 175, 165, 199, 212, 212, 219, 233, 231, 222, 221, 206, 247, 233, 237, 230, 237, 182},
{216, 200, 250, 226, 227, 235, 249, 235, 255, 245, 244, 237, 186, 148, 145, 158, 150, 180, 185, 193, 190, 199, 215, 219, 232, 225, 240, 212, 219, 197, 193, 172, 192, 186, 188, 204, 215, 187, 183, 210, 193, 189, 205, 209, 185, 206, 190, 185, 185, 185, 201, 205, 199, 192, 200, 223, 228, 254, 251, 242, 194, 203, 162, 172, 179, 173, 171, 178, 168, 167, 160, 150, 153, 163, 199, 217, 215, 210, 222, 180, 161, 154, 155, 143, 142, 148, 144, 148, 140, 165, 177, 175, 176, 174, 195, 181, 196, 189, 192, 165},
{49, 47, 57, 59, 64, 65, 67, 66, 62, 58, 55, 61, 57, 54, 58, 61, 51, 56, 57, 57, 58, 66, 61, 67, 68, 68, 67, 67, 67, 64, 61, 61, 60, 54, 55, 55, 51, 50, 50, 47, 49, 49, 49, 54, 51, 54, 53, 60, 58, 60, 66, 64, 57, 55, 57, 51, 52, 56, 59, 56, 56, 54, 50, 53, 57, 53, 60, 65, 61, 57, 55, 50, 45, 44, 50, 55, 61, 65, 68, 62, 59, 51, 45, 45, 45, 49, 49, 57, 57, 61, 69, 71, 66, 62, 64, 50, 54, 54, 55, 49},
{29, 29, 26, 34, 42, 43, 48, 48, 42, 40, 43, 49, 54, 57, 59, 61, 55, 50, 49, 45, 47, 46, 48, 51, 49, 46, 44, 56, 59, 60, 59, 64, 56, 53, 53, 56, 51, 49, 56, 57, 51, 51, 53, 50, 51, 53, 51, 50, 39, 45, 47, 52, 53, 57, 51, 49, 44, 40, 39, 42, 40, 44, 45, 45, 42, 43, 42, 40, 38, 37, 36, 33, 36, 38, 37, 43, 46, 45, 47, 49, 47, 43, 47, 44, 51, 58, 61, 62, 62, 55, 55, 52, 48, 47, 50, 42, 58, 60, 60, 56},
{41, 36, 30, 33, 34, 36, 39, 44, 44, 45, 63, 77, 85, 88, 94, 101, 93, 87, 83, 81, 64, 69, 69, 77, 73, 82, 76, 90, 86, 86, 73, 76, 62, 61, 61, 79, 75, 74, 89, 88, 72, 80, 84, 77, 78, 78, 69, 70, 62, 79, 83, 85, 76, 75, 67, 70, 69, 69, 69, 75, 68, 79, 100, 109, 102, 102, 93, 71, 57, 50, 50, 58, 63, 62, 68, 74, 71, 66, 70, 67, 61, 62, 68, 73, 75, 79, 86, 91, 81, 80, 89, 78, 74, 77, 77, 67, 91, 86, 84, 82},
{73, 76, 61, 56, 57, 59, 55, 66, 81, 84, 86, 89, 87, 85, 79, 77, 76, 70, 54, 74, 81, 80, 80, 90, 71, 68, 73, 85, 80, 89, 85, 88, 79, 73, 81, 95, 89, 91, 102, 93, 79, 80, 82, 67, 64, 71, 75, 69, 82, 78, 79, 75, 72, 70, 93, 86, 83, 90, 85, 66, 70, 71, 65, 59, 75, 74, 82, 91, 101, 90, 90, 94, 84, 75, 73, 68, 59, 64, 59, 71, 89, 84, 85, 99, 93, 80, 99, 101, 91, 95, 93, 75, 70, 66, 58, 74, 73, 73, 73, 73}}

// 20 Reading of the 8 sensors, 100 samples per sensor
{{90, 79, 108, 128, 146, 146, 159, 154, 147, 154, 172, 197, 253, 273, 269, 261, 245, 182, 158, 143, 155, 147, 145, 152, 152, 150, 147, 157, 157, 162, 174, 193, 202, 199, 216, 195, 174, 160, 150, 151, 157, 166, 171, 172, 173, 171, 181, 181, 196, 189, 210, 241, 242, 230, 216, 220, 212, 206, 199, 202, 195, 192, 212, 230, 232, 211, 179, 161, 148, 163, 186, 187, 182, 182, 167, 164, 168, 181, 172, 162, 145, 137, 113, 133, 132, 158, 157, 179, 178, 178, 158, 161, 143, 142, 159, 171, 164, 169, 171, 158},
{66, 70, 74, 88, 88, 94, 91, 92, 81, 83, 92, 96, 98, 111, 115, 103, 106, 101, 86, 76, 80, 70, 69, 77, 78, 77, 83, 82, 73, 75, 76, 76, 73, 68, 76, 85, 85, 100, 107, 106, 100, 100, 86, 82, 75, 73, 72, 72, 88, 84, 91, 104, 105, 94, 97, 97, 80, 80, 73, 69, 71, 80, 79, 83, 86, 86, 78, 78, 75, 76, 65, 65, 65, 70, 77, 84, 92, 93, 90, 79, 70, 61, 56, 57, 54, 51, 51, 56, 56, 58, 60, 65, 63, 59, 71, 70, 68, 78, 83, 70},
{258, 269, 290, 292, 304, 310, 310, 309, 270, 277, 291, 304, 306, 349, 355, 342, 357, 347, 320, 304, 286, 246, 241, 248, 229, 226, 249, 287, 268, 334, 344, 345, 340, 341, 289, 311, 288, 275, 304, 320, 322, 329, 320, 332, 335, 316, 316, 307, 303, 276, 276, 296, 307, 264, 260, 240, 213, 195, 204, 200, 215, 219, 233, 244, 239, 263, 291, 320, 310, 307, 285, 261, 222, 232, 244, 286, 282, 297, 293, 278, 221, 227, 198, 189, 179, 185, 174, 209, 224, 258, 276, 277, 247, 257, 265, 246, 247, 318, 300, 266},
{238, 242, 259, 239, 265, 261, 263, 259, 260, 263, 266, 341, 352, 464, 476, 474, 432, 437, 401, 382, 394, 372, 369, 276, 257, 257, 314, 325, 326, 392, 421, 396, 372, 389, 320, 291, 311, 350, 371, 408, 420, 408, 393, 363, 355, 371, 391, 379, 391, 368, 344, 332, 336, 366, 357, 341, 375, 366, 317, 322, 348, 307, 394, 453, 473, 476, 474, 399, 339, 329, 333, 305, 354, 351, 369, 350, 387, 395, 387, 381, 377, 382, 339, 327, 347, 345, 389, 407, 413, 386, 404, 341, 358, 382, 440, 431, 491, 486, 500, 444},
{59, 57, 61, 65, 65, 70, 72, 70, 70, 85, 84, 99, 101, 109, 110, 111, 99, 97, 87, 75, 81, 88, 84, 91, 93, 86, 82, 83, 76, 74, 74, 73, 80, 85, 82, 87, 84, 91, 89, 114, 112, 116, 116, 116, 95, 98, 92, 81, 87, 82, 72, 76, 76, 78, 79, 82, 97, 95, 83, 88, 90, 72, 78, 84, 83, 78, 85, 81, 75, 83, 84, 74, 74, 79, 77, 78, 91, 97, 94, 83, 80, 79, 72, 73, 77, 80, 79, 80, 77, 76, 77, 71, 83, 87, 95, 94, 92, 79, 79, 72},
{71, 67, 62, 75, 70, 70, 69, 66, 60, 68, 66, 65, 67, 59, 50, 50, 52, 51, 51, 47, 61, 60, 60, 79, 81, 71, 76, 78, 61, 62, 56, 49, 44, 47, 43, 47, 47, 46, 39, 37, 35, 36, 37, 36, 35, 38, 41, 39, 44, 47, 45, 47, 48, 49, 48, 47, 42, 39, 33, 35, 35, 37, 42, 44, 43, 45, 44, 43, 43, 48, 49, 49, 48, 48, 44, 46, 49, 49, 48, 49, 46, 45, 48, 49, 44, 44, 43, 43, 43, 44, 41, 38, 34, 35, 33, 37, 39, 45, 47, 48},
{92, 80, 94, 99, 105, 122, 118, 103, 112, 118, 104, 119, 120, 109, 96, 107, 93, 91, 86, 86, 92, 87, 89, 92, 90, 70, 79, 77, 80, 83, 81, 74, 74, 65, 60, 60, 58, 75, 73, 78, 74, 73, 59, 65, 59, 61, 69, 62, 65, 82, 81, 79, 84, 81, 71, 77, 73, 68, 63, 62, 52, 52, 58, 61, 57, 60, 58, 60, 58, 63, 67, 74, 70, 73, 72, 68, 64, 64, 66, 76, 80, 78, 84, 86, 82, 80, 77, 75, 72, 66, 63, 66, 58, 63, 58, 61, 61, 68, 62, 63},
{73, 71, 87, 94, 87, 90, 90, 86, 112, 149, 166, 186, 236, 231, 219, 210, 204, 147, 158, 179, 186, 176, 169, 188, 157, 143, 143, 153, 126, 133, 141, 150, 148, 146, 151, 147, 136, 147, 156, 150, 148, 182, 170, 167, 177, 185, 154, 156, 139, 175, 176, 185, 199, 199, 149, 158, 183, 163, 169, 179, 161, 129, 159, 152, 145, 144, 150, 131, 140, 172, 168, 160, 158, 149, 105, 123, 139, 137, 134, 148, 142, 125, 128, 135, 139, 140, 135, 125, 122, 132, 123, 157, 158, 164, 145, 163, 152, 153, 141, 133}}

// 21 Reading of the 8 sensors, 100 samples per sensor
{{107, 117, 99, 110, 110, 113, 104, 106, 95, 104, 104, 101, 116, 118, 110, 103, 104, 88, 99, 110, 109, 96, 97, 93, 79, 91, 116, 115, 110, 119, 114, 103, 115, 113, 104, 135, 127, 116, 122, 131, 120, 128, 129, 134, 126, 101, 89, 116, 111, 110, 113, 122, 109, 111, 108, 104, 129, 117, 108, 117, 129, 117, 118, 123, 127, 117, 98, 102, 117, 113, 113, 112, 122, 105, 93, 118, 123, 105, 108, 114, 131, 130, 144, 137, 137, 112, 110, 99, 114, 116, 121, 115, 111, 99, 103, 89, 91, 90, 94, 92},
{89, 93, 84, 80, 82, 69, 64, 62, 72, 67, 63, 71, 72, 65, 70, 67, 60, 62, 62, 53, 66, 68, 64, 61, 63, 54, 59, 65, 67, 78, 77, 78, 73, 73, 59, 59, 52, 66, 63, 66, 72, 74, 69, 74, 76, 70, 67, 67, 64, 57, 57, 62, 56, 56, 62, 66, 82, 83, 84, 88, 85, 66, 63, 67, 57, 56, 58, 65, 69, 72, 74, 74, 74, 65, 62, 72, 68, 71, 77, 82, 77, 82, 86, 82, 92, 90, 105, 97, 101, 95, 92, 79, 90, 86, 81, 83, 92, 108, 109, 110},
{328, 356, 354, 357, 350, 345, 297, 293, 301, 287, 258, 269, 252, 220, 207, 203, 235, 238, 243, 245, 272, 233, 233, 236, 231, 223, 227, 213, 207, 230, 219, 257, 262, 265, 265, 271, 263, 261, 263, 239, 234, 193, 227, 216, 245, 240, 241, 199, 189, 146, 157, 184, 183, 204, 236, 232, 221, 231, 241, 226, 226, 222, 239, 233, 223, 237, 237, 215, 250, 274, 271, 299, 317, 312, 296, 288, 257, 290, 263, 251, 285, 288, 257, 256, 274, 232, 255, 233, 229, 233, 239, 253, 271, 271, 260, 277, 253, 277, 309, 322},
{265, 288, 306, 313, 317, 334, 302, 307, 291, 291, 259, 282, 248, 246, 245, 222, 208, 216, 200, 206, 221, 216, 206, 204, 175, 212, 201, 200, 237, 264, 230, 233, 236, 229, 239, 264, 275, 281, 282, 250, 218, 209, 219, 189, 197, 234, 219, 190, 210, 217, 222, 240, 243, 232, 244, 202, 188, 211, 220, 207, 217, 210, 196, 184, 179, 214, 240, 228, 237, 262, 225, 228, 255, 265, 229, 243, 217, 213, 180, 181, 224, 227, 213, 220, 229, 172, 180, 172, 157, 158, 165, 159, 196, 224, 230, 228, 252, 272, 261, 264},
{67, 70, 72, 75, 70, 70, 74, 72, 67, 65, 68, 66, 63, 65, 66, 65, 62, 67, 70, 67, 68, 78, 76, 71, 69, 68, 57, 55, 61, 66, 66, 63, 63, 63, 69, 68, 72, 75, 73, 66, 67, 63, 63, 62, 64, 59, 57, 51, 51, 54, 57, 61, 66, 66, 63, 59, 57, 55, 52, 53, 54, 53, 55, 55, 51, 51, 51, 47, 50, 53, 59, 63, 68, 71, 72, 67, 65, 62, 57, 55, 65, 66, 66, 69, 70, 58, 53, 54, 49, 54, 53, 54, 52, 56, 50, 49, 55, 64, 59, 61},
{70, 70, 73, 73, 75, 71, 67, 64, 62, 52, 53, 59, 53, 54, 52, 53, 47, 48, 44, 42, 39, 49, 48, 51, 53, 58, 52, 51, 50, 51, 44, 39, 41, 45, 49, 52, 52, 54, 50, 49, 48, 48, 47, 47, 42, 41, 39, 44, 44, 46, 45, 49, 47, 48, 45, 45, 43, 38, 37, 40, 38, 38, 40, 40, 41, 41, 41, 43, 44, 48, 49, 50, 57, 59, 57, 57, 58, 49, 43, 40, 44, 44, 45, 47, 46, 44, 43, 42, 44, 48, 47, 43, 43, 44, 40, 39, 39, 39, 34, 38},
{112, 102, 102, 98, 112, 112, 110, 107, 107, 74, 77, 85, 83, 78, 88, 84, 75, 73, 71, 70, 74, 86, 87, 85, 82, 78, 76, 93, 98, 93, 96, 93, 78, 81, 85, 79, 79, 84, 82, 83, 85, 82, 74, 70, 68, 60, 63, 93, 95, 91, 96, 94, 69, 73, 73, 68, 66, 60, 57, 61, 61, 68, 75, 71, 69, 72, 69, 70, 72, 78, 81, 82, 87, 90, 83, 77, 75, 58, 61, 63, 78, 81, 87, 84, 87, 95, 98, 97, 94, 95, 76, 69, 63, 68, 65, 66, 61, 62, 71, 74},
{106, 95, 95, 97, 93, 93, 83, 93, 91, 86, 98, 113, 109, 106, 106, 88, 75, 68, 70, 90, 92, 87, 90, 88, 66, 71, 74, 72, 108, 111, 107, 107, 113, 91, 96, 99, 100, 93, 85, 81, 86, 95, 97, 95, 96, 95, 82, 81, 89, 86, 86, 98, 96, 95, 105, 109, 100, 101, 94, 104, 98, 95, 98, 99, 70, 61, 96, 93, 97, 98, 99, 96, 105, 107, 106, 113, 107, 106, 99, 102, 101, 107, 102, 100, 99, 99, 74, 86, 90, 91, 82, 80, 58, 72, 71, 80, 81, 81, 80, 81}}

// 22 Reading of the 8 sensors, 100 samples per sensor
{{138, 112, 116, 121, 111, 112, 107, 109, 92, 102, 117, 119, 107, 112, 137, 127, 127, 141, 146, 119, 110, 112, 94, 94, 101, 106, 100, 108, 112, 111, 112, 129, 135, 131, 126, 125, 110, 112, 120, 120, 126, 128, 127, 114, 108, 114, 128, 131, 123, 140, 134, 126, 116, 131, 131, 140, 147, 153, 144, 140, 125, 132, 127, 131, 132, 136, 130, 135, 132, 138, 145, 149, 156, 176, 161, 159, 161, 143, 116, 119, 118, 100, 100, 115, 124, 114, 126, 140, 130, 123, 138, 120, 110, 106, 126, 110, 137, 134, 136, 118},
{89, 93, 94, 93, 99, 87, 73, 78, 78, 75, 86, 93, 84, 83, 78, 69, 59, 64, 71, 67, 70, 69, 70, 63, 66, 61, 63, 58, 56, 55, 63, 60, 63, 64, 71, 73, 77, 81, 84, 85, 84, 84, 82, 79, 71, 81, 82, 78, 83, 84, 79, 81, 82, 77, 78, 90, 87, 92, 89, 94, 82, 78, 73, 87, 82, 72, 82, 101, 108, 114, 129, 122, 112, 102, 96, 83, 84, 77, 73, 69, 63, 76, 74, 69, 76, 81, 74, 83, 96, 100, 106, 107, 107, 122, 118, 116, 119, 116, 89, 87},
{348, 339, 340, 303, 304, 260, 266, 330, 329, 317, 316, 330, 254, 299, 287, 302, 287, 321, 309, 315, 330, 320, 287, 261, 258, 230, 270, 299, 290, 289, 301, 291, 266, 276, 280, 263, 253, 257, 266, 247, 253, 247, 244, 259, 270, 263, 284, 292, 271, 272, 311, 283, 282, 280, 281, 269, 275, 283, 288, 328, 327, 330, 332, 365, 330, 303, 299, 301, 383, 389, 441, 446, 444, 346, 338, 306, 351, 336, 396, 405, 382, 372, 382, 310, 322, 342, 332, 341, 409, 407, 395, 401, 391, 362, 358, 352, 372, 368, 340, 354},
{218, 215, 214, 205, 206, 203, 185, 183, 164, 171, 168, 193, 176, 175, 178, 179, 170, 178, 182, 172, 169, 163, 149, 142, 155, 159, 163, 169, 176, 181, 178, 179, 183, 189, 171, 174, 157, 145, 142, 135, 123, 128, 136, 117, 116, 122, 165, 171, 173, 182, 193, 185, 178, 179, 179, 170, 155, 207, 221, 224, 231, 226, 189, 199, 199, 217, 223, 228, 226, 238, 221, 221, 227, 216, 214, 214, 231, 211, 252, 231, 260, 255, 265, 232, 269, 236, 238, 251, 260, 243, 244, 238, 222, 203, 189, 191, 208, 194, 185, 213},
{65, 66, 65, 63, 67, 67, 60, 59, 60, 51, 48, 54, 52, 45, 50, 48, 45, 43, 49, 54, 59, 59, 59, 57, 53, 52, 50, 50, 51, 48, 43, 45, 43, 42, 45, 57, 59, 58, 57, 56, 53, 52, 53, 52, 52, 48, 51, 50, 53, 53, 55, 56, 57, 56, 58, 54, 52, 54, 53, 52, 51, 52, 49, 53, 54, 55, 64, 67, 70, 80, 93, 87, 87, 83, 77, 62, 71, 67, 63, 57, 65, 69, 74, 79, 85, 81, 69, 67, 69, 74, 69, 75, 76, 73, 60, 63, 59, 57, 54, 67},
{70, 74, 73, 62, 70, 71, 65, 64, 70, 59, 54, 50, 55, 54, 57, 60, 62, 57, 56, 61, 65, 63, 67, 67, 61, 55, 57, 65, 62, 64, 67, 69, 56, 57, 60, 58, 53, 56, 58, 52, 54, 61, 60, 55, 60, 62, 56, 54, 56, 60, 58, 59, 60, 66, 70, 71, 74, 82, 78, 67, 68, 68, 58, 69, 70, 65, 63, 66, 54, 56, 59, 64, 67, 67, 67, 65, 60, 53, 53, 50, 51, 54, 62, 61, 64, 61, 56, 53, 54, 52, 59, 64, 59, 59, 62, 56, 50, 52, 54, 59},
{94, 101, 102, 89, 105, 110, 100, 100, 102, 81, 70, 69, 71, 66, 70, 75, 86, 89, 93, 107, 111, 105, 103, 97, 79, 65, 66, 76, 75, 75, 87, 89, 80, 81, 85, 76, 73, 77, 79, 77, 79, 83, 95, 92, 97, 104, 110, 99, 100, 97, 105, 98, 96, 101, 106, 93, 100, 109, 108, 100, 100, 95, 82, 90, 104, 98, 94, 96, 80, 62, 66, 69, 76, 80, 82, 83, 83, 83, 89, 88, 87, 96, 98, 102, 104, 99, 89, 83, 68, 63, 75, 81, 92, 93, 94, 97, 97, 87, 108, 116},
{114, 109, 111, 99, 99, 111, 98, 100, 106, 115, 102, 103, 96, 100, 124, 124, 119, 129, 137, 109, 107, 115, 109, 103, 110, 108, 101, 108, 105, 93, 97, 131, 122, 123, 124, 123, 99, 104, 102, 106, 130, 128, 128, 125, 127, 100, 98, 92, 111, 120, 132, 150, 153, 145, 138, 133, 116, 117, 111, 131, 129, 124, 128, 148, 132, 131, 152, 153, 134, 134, 156, 135, 152, 158, 153, 126, 129, 96, 80, 79, 79, 108, 110, 112, 113, 114, 122, 119, 117, 121, 126, 104, 104, 110, 106, 121, 131, 130, 129, 131}}

// 23 Reading of the 8 sensors, 100 samples per sensor
{{117, 115, 145, 137, 124, 143, 153, 146, 218, 227, 281, 322, 327, 302, 331, 290, 288, 315, 336, 306, 315, 274, 231, 221, 262, 244, 246, 254, 231, 172, 176, 172, 214, 233, 232, 237, 258, 219, 202, 203, 191, 166, 173, 143, 165, 172, 173, 180, 189, 167, 153, 141, 116, 98, 104, 110, 138, 179, 189, 201, 207, 199, 167, 172, 155, 189, 181, 213, 202, 206, 175, 185, 137, 148, 143, 137, 130, 145, 147, 150, 140, 137, 145, 141, 134, 161, 172, 164, 154, 178, 169, 169, 169, 174, 149, 137, 143, 147, 156, 167},
{84, 80, 81, 88, 86, 99, 102, 98, 102, 104, 94, 115, 128, 138, 137, 137, 124, 133, 114, 113, 115, 115, 90, 100, 114, 112, 121, 123, 117, 113, 116, 138, 152, 153, 163, 164, 134, 118, 131, 114, 113, 111, 109, 83, 80, 76, 84, 98, 100, 105, 106, 114, 104, 108, 103, 101, 91, 98, 94, 91, 89, 81, 82, 83, 84, 94, 99, 85, 82, 81, 82, 80, 82, 87, 95, 90, 91, 98, 98, 95, 96, 90, 85, 83, 80, 79, 88, 86, 83, 85, 81, 72, 72, 72, 69, 72, 91, 106, 116, 115},
{346, 356, 326, 358, 352, 366, 350, 367, 365, 343, 338, 400, 422, 537, 541, 547, 512, 479, 320, 332, 338, 327, 361, 415, 449, 434, 433, 401, 346, 283, 291, 357, 386, 392, 424, 419, 365, 390, 403, 357, 357, 346, 319, 284, 297, 331, 365, 387, 425, 439, 418, 411, 404, 368, 366, 351, 371, 357, 382, 404, 421, 388, 394, 353, 297, 311, 297, 257, 258, 290, 276, 294, 332, 398, 391, 389, 395, 367, 305, 307, 309, 293, 283, 301, 298, 306, 324, 317, 290, 294, 282, 261, 273, 307, 278, 255, 295, 320, 312, 333},
{273, 304, 275, 300, 304, 277, 236, 252, 304, 292, 290, 317, 352, 326, 336, 344, 324, 311, 267, 266, 266, 260, 225, 235, 240, 226, 253, 266, 289, 298, 304, 323, 338, 308, 300, 314, 301, 281, 302, 297, 275, 246, 229, 221, 206, 230, 238, 256, 256, 255, 238, 229, 269, 255, 263, 256, 246, 195, 198, 185, 189, 200, 185, 173, 157, 158, 177, 168, 169, 175, 195, 172, 208, 229, 269, 256, 258, 248, 250, 209, 198, 197, 177, 135, 129, 142, 155, 149, 152, 161, 170, 156, 159, 159, 152, 133, 139, 144, 141, 136},
{63, 69, 59, 64, 59, 69, 65, 69, 67, 67, 62, 94, 94, 94, 96, 95, 70, 80, 77, 80, 79, 75, 57, 63, 57, 53, 51, 57, 58, 70, 75, 93, 97, 93, 95, 93, 79, 77, 84, 76, 77, 75, 73, 69, 69, 68, 71, 71, 74, 77, 77, 76, 84, 82, 79, 81, 84, 83, 79, 74, 81, 75, 66, 72, 71, 61, 65, 61, 58, 60, 63, 56, 58, 57, 64, 61, 66, 70, 69, 61, 59, 65, 58, 56, 58, 62, 53, 55, 63, 66, 67, 68, 68, 62, 59, 55, 51, 54, 52, 49},
{71, 79, 78, 81, 75, 81, 80, 74, 67, 67, 61, 81, 82, 81, 82, 78, 56, 55, 59, 65, 69, 68, 72, 70, 69, 66, 60, 58, 60, 56, 56, 69, 68, 70, 76, 78, 79, 77, 72, 67, 65, 58, 58, 59, 59, 68, 64, 63, 60, 60, 59, 58, 59, 61, 57, 49, 47, 48, 43, 42, 42, 41, 38, 42, 43, 39, 42, 38, 35, 36, 37, 40, 44, 44, 46, 44, 42, 38, 41, 39, 41, 39, 44, 41, 41, 39, 40, 38, 40, 39, 48, 48, 50, 50, 50, 45, 48, 48, 48, 48},
{107, 114, 105, 114, 114, 119, 121, 122, 116, 111, 114, 180, 182, 178, 195, 195, 147, 155, 154, 148, 141, 122, 112, 120, 97, 112, 111, 115, 102, 118, 104, 109, 105, 109, 95, 98, 95, 85, 81, 95, 96, 114, 124, 122, 114, 137, 137, 140, 149, 157, 144, 134, 127, 137, 179, 184, 196, 199, 198, 181, 193, 201, 206, 212, 191, 174, 166, 154, 136, 138, 131, 121, 138, 139, 144, 142, 143, 124, 122, 123, 130, 118, 120, 115, 110, 100, 106, 104, 105, 102, 105, 113, 119, 114, 120, 122, 122, 126, 130, 118},
{66, 71, 85, 98, 100, 118, 116, 126, 219, 223, 239, 256, 266, 245, 266, 249, 282, 267, 239, 225, 243, 189, 190, 177, 189, 165, 162, 159, 185, 158, 162, 166, 206, 187, 185, 203, 215, 188, 178, 180, 151, 153, 159, 149, 150, 180, 163, 161, 180, 188, 179, 172, 168, 157, 150, 144, 163, 206, 202, 199, 194, 183, 119, 117, 133, 175, 172, 176, 186, 174, 130, 132, 132, 119, 123, 121, 132, 126, 124, 163, 160, 144, 151, 159, 108, 117, 115, 137, 125, 137, 130, 152, 124, 127, 113, 122, 104, 98, 100, 104}}

// 24 Reading of the 8 sensors, 100 samples per sensor
{{81, 83, 69, 105, 122, 123, 160, 165, 148, 135, 135, 98, 96, 106, 113, 109, 112, 107, 95, 105, 109, 109, 110, 130, 116, 110, 151, 155, 141, 142, 154, 111, 117, 127, 127, 111, 129, 118, 106, 119, 118, 91, 109, 115, 101, 116, 125, 117, 116, 135, 130, 128, 123, 124, 114, 115, 109, 104, 124, 129, 123, 132, 148, 140, 145, 144, 146, 144, 139, 117, 114, 98, 89, 82, 88, 93, 94, 79, 100, 111, 114, 113, 120, 100, 81, 72, 84, 87, 86, 92, 95, 82, 87, 101, 116, 125, 126, 126, 131, 119},
{62, 66, 76, 78, 68, 75, 81, 83, 82, 83, 81, 83, 74, 77, 82, 83, 71, 72, 72, 64, 66, 69, 77, 77, 88, 82, 87, 89, 87, 78, 79, 82, 72, 77, 76, 76, 70, 69, 60, 63, 63, 61, 62, 68, 67, 69, 85, 86, 86, 89, 89, 73, 76, 75, 71, 70, 69, 67, 62, 75, 76, 78, 72, 74, 72, 69, 70, 81, 84, 73, 74, 73, 71, 67, 74, 73, 75, 69, 71, 64, 65, 62, 63, 61, 63, 61, 65, 62, 67, 69, 78, 74, 73, 73, 74, 63, 74, 76, 73, 70},
{239, 241, 233, 223, 179, 210, 257, 295, 296, 304, 293, 285, 252, 249, 255, 272, 253, 239, 251, 254, 229, 230, 240, 250, 297, 307, 322, 364, 349, 302, 284, 277, 235, 228, 246, 265, 275, 257, 246, 227, 210, 203, 247, 262, 266, 268, 308, 293, 286, 300, 308, 248, 220, 224, 189, 191, 183, 206, 220, 252, 278, 314, 303, 287, 285, 258, 241, 264, 263, 248, 245, 251, 288, 297, 296, 295, 283, 270, 266, 266, 254, 244, 184, 171, 161, 177, 198, 209, 246, 250, 237, 208, 190, 138, 154, 161, 183, 189, 232, 231},
{180, 174, 170, 168, 149, 148, 167, 167, 162, 172, 180, 166, 164, 172, 169, 174, 173, 167, 170, 169, 148, 149, 152, 150, 169, 165, 162, 176, 163, 163, 169, 172, 156, 152, 145, 150, 155, 171, 187, 182, 182, 179, 182, 195, 202, 192, 213, 213, 198, 184, 202, 182, 181, 192, 192, 190, 197, 182, 184, 187, 184, 236, 239, 224, 227, 217, 172, 190, 201, 201, 210, 207, 229, 229, 247, 245, 249, 241, 235, 217, 215, 194, 157, 163, 153, 156, 169, 170, 170, 182, 173, 168, 160, 148, 149, 150, 163, 181, 202, 207},
{61, 62, 71, 69, 66, 63, 66, 57, 54, 54, 54, 53, 53, 58, 54, 56, 56, 63, 63, 68, 65, 61, 55, 49, 50, 50, 50, 52, 52, 45, 45, 44, 41, 44, 48, 50, 49, 48, 49, 48, 47, 50, 51, 61, 63, 64, 62, 65, 60, 55, 57, 58, 57, 53, 54, 50, 52, 49, 48, 49, 51, 62, 61, 59, 58, 56, 46, 58, 63, 75, 76, 73, 68, 63, 51, 51, 53, 55, 58, 60, 62, 61, 58, 60, 57, 53, 53, 47, 41, 38, 36, 38, 41, 42, 47, 50, 52, 51, 53, 47},
{67, 60, 66, 60, 63, 54, 59, 52, 59, 56, 61, 67, 65, 59, 57, 58, 51, 63, 65, 67, 64, 65, 56, 53, 54, 54, 53, 53, 58, 58, 57, 53, 51, 50, 51, 50, 51, 57, 54, 55, 55, 65, 65, 72, 68, 72, 62, 58, 53, 57, 54, 53, 54, 52, 53, 50, 54, 48, 61, 58, 58, 62, 67, 61, 58, 60, 60, 56, 52, 54, 59, 53, 58, 57, 58, 61, 73, 69, 69, 68, 61, 53, 56, 57, 59, 55, 49, 45, 48, 45, 48, 47, 56, 51, 51, 51, 50, 40, 49, 51},
{91, 92, 99, 99, 100, 91, 94, 87, 82, 77, 94, 96, 93, 95, 98, 92, 91, 110, 110, 108, 111, 115, 98, 97, 98, 92, 82, 83, 86, 87, 85, 86, 83, 92, 103, 106, 106, 116, 108, 100, 94, 114, 118, 128, 124, 128, 109, 96, 95, 110, 107, 105, 103, 89, 74, 77, 77, 82, 88, 85, 82, 94, 95, 95, 98, 93, 75, 66, 67, 69, 83, 91, 93, 98, 97, 98, 99, 102, 92, 87, 80, 79, 71, 81, 85, 83, 74, 74, 75, 83, 84, 86, 87, 75, 64, 55, 60, 63, 79, 82},
{72, 56, 66, 74, 94, 106, 199, 207, 204, 198, 196, 127, 120, 123, 127, 136, 116, 109, 105, 110, 92, 101, 106, 133, 127, 128, 130, 134, 121, 116, 117, 104, 121, 119, 123, 125, 126, 115, 107, 107, 100, 112, 106, 108, 105, 121, 112, 103, 150, 153, 145, 150, 164, 122, 118, 114, 130, 114, 124, 126, 142, 122, 119, 122, 143, 131, 129, 127, 115, 83, 74, 75, 99, 98, 99, 98, 95, 93, 107, 105, 106, 108, 93, 73, 71, 74, 98, 114, 124, 129, 130, 120, 115, 109, 107, 110, 125, 118, 121, 123}}

// 25 Reading of the 8 sensors, 100 samples per sensor
{{107, 112, 106, 112, 134, 134, 133, 135, 121, 89, 88, 94, 83, 77, 76, 76, 60, 61, 83, 83, 95, 93, 113, 98, 99, 101, 104, 80, 92, 96, 83, 81, 98, 89, 81, 95, 93, 79, 77, 92, 76, 77, 87, 89, 80, 91, 89, 78, 97, 94, 82, 84, 89, 69, 72, 79, 82, 72, 77, 92, 82, 80, 93, 88, 71, 73, 81, 73, 72, 79, 83, 75, 72, 80, 75, 71, 70, 88, 80, 79, 89, 86, 65, 79, 87, 81, 81, 94, 84, 79, 93, 93, 85, 85, 86, 68, 67, 62, 79, 74},
{80, 73, 67, 66, 67, 59, 73, 67, 72, 89, 90, 91, 102, 99, 94, 98, 88, 88, 94, 84, 108, 111, 109, 109, 111, 81, 80, 77, 78, 72, 89, 82, 78, 71, 73, 61, 63, 68, 70, 71, 73, 89, 88, 84, 87, 88, 79, 81, 87, 83, 78, 76, 78, 73, 76, 72, 74, 66, 66, 65, 71, 74, 72, 71, 71, 68, 60, 65, 74, 68, 68, 69, 68, 56, 59, 60, 66, 73, 73, 73, 75, 67, 54, 57, 60, 55, 56, 59, 58, 55, 58, 58, 61, 64, 67, 65, 70, 68, 67, 66},
{227, 261, 261, 268, 284, 301, 341, 339, 352, 421, 420, 388, 405, 400, 351, 364, 354, 337, 326, 289, 276, 270, 253, 266, 252, 245, 251, 287, 309, 316, 335, 319, 299, 297, 310, 304, 301, 289, 279, 266, 252, 273, 284, 267, 271, 258, 283, 269, 271, 283, 292, 335, 349, 366, 345, 337, 275, 288, 254, 265, 264, 250, 215, 229, 234, 265, 246, 249, 259, 248, 221, 213, 213, 203, 191, 236, 276, 344, 331, 352, 320, 321, 258, 285, 271, 269, 236, 230, 235, 228, 226, 228, 233, 196, 202, 209, 252, 235, 267, 263},
{275, 278, 277, 289, 275, 223, 229, 227, 200, 255, 272, 277, 282, 284, 226, 206, 213, 192, 187, 211, 207, 219, 227, 224, 198, 196, 173, 172, 187, 196, 213, 204, 197, 203, 228, 213, 200, 210, 210, 175, 177, 209, 191, 171, 172, 164, 147, 153, 179, 187, 204, 205, 220, 224, 222, 216, 203, 204, 179, 179, 168, 177, 148, 160, 168, 188, 185, 184, 190, 194, 176, 185, 191, 193, 175, 195, 172, 199, 177, 173, 162, 205, 173, 173, 176, 160, 110, 114, 136, 137, 148, 150, 162, 160, 173, 163, 193, 178, 183, 170},
{63, 67, 65, 70, 69, 64, 60, 56, 55, 63, 68, 74, 74, 70, 64, 60, 56, 56, 59, 64, 64, 59, 64, 65, 57, 53, 60, 56, 60, 69, 72, 69, 67, 69, 68, 67, 63, 62, 54, 44, 43, 55, 56, 59, 62, 63, 64, 66, 76, 73, 74, 70, 71, 62, 64, 61, 61, 61, 52, 51, 49, 45, 39, 42, 42, 46, 44, 49, 51, 52, 49, 52, 50, 50, 55, 56, 57, 63, 61, 56, 55, 63, 57, 60, 72, 71, 59, 58, 63, 53, 57, 57, 57, 51, 52, 47, 61, 59, 61, 57},
{53, 56, 58, 53, 56, 60, 62, 65, 83, 98, 99, 106, 105, 92, 80, 81, 74, 80, 91, 92, 99, 97, 88, 83, 77, 69, 65, 69, 66, 69, 80, 80, 85, 81, 86, 78, 81, 89, 90, 84, 96, 102, 96, 106, 117, 110, 104, 105, 102, 87, 83, 82, 75, 74, 75, 74, 77, 78, 72, 70, 71, 67, 65, 60, 56, 59, 59, 63, 76, 81, 76, 90, 91, 82, 93, 94, 81, 83, 90, 74, 80, 82, 75, 74, 76, 67, 64, 64, 77, 76, 82, 83, 80, 62, 59, 56, 63, 65, 71, 75},
{128, 129, 122, 110, 118, 116, 119, 127, 139, 162, 158, 155, 149, 156, 144, 168, 167, 182, 163, 149, 135, 144, 130, 126, 120, 116, 134, 128, 142, 149, 152, 126, 143, 132, 141, 146, 146, 154, 154, 155, 155, 153, 137, 145, 142, 140, 155, 158, 159, 154, 144, 126, 117, 110, 104, 109, 114, 134, 131, 130, 133, 130, 114, 110, 116, 111, 110, 110, 129, 126, 117, 148, 144, 131, 168, 174, 149, 158, 164, 121, 137, 146, 146, 163, 175, 164, 166, 172, 168, 157, 164, 157, 157, 138, 137, 130, 140, 128, 135, 139},
{76, 76, 66, 64, 64, 67, 66, 71, 91, 94, 90, 91, 85, 62, 54, 70, 67, 71, 72, 75, 75, 73, 77, 75, 72, 64, 66, 56, 60, 63, 62, 62, 65, 67, 68, 63, 60, 71, 66, 62, 65, 72, 61, 60, 67, 64, 56, 61, 74, 66, 68, 70, 65, 52, 55, 58, 58, 56, 65, 64, 61, 61, 62, 61, 61, 61, 62, 64, 56, 56, 58, 66, 66, 64, 66, 65, 54, 55, 52, 46, 44, 44, 39, 47, 53, 62, 64, 64, 62, 57, 51, 67, 67, 65, 69, 66, 55, 52, 59, 56}}

// 26 Reading of the 8 sensors, 100 samples per sensor
{{55, 60, 61, 71, 67, 54, 52, 53, 39, 33, 32, 30, 53, 59, 60, 61, 79, 65, 64, 78, 81, 66, 65, 84, 76, 75, 74, 75, 64, 58, 58, 59, 66, 64, 67, 66, 77, 71, 60, 57, 74, 67, 67, 80, 82, 70, 65, 72, 57, 54, 51, 69, 64, 70, 71, 89, 76, 75, 72, 86, 69, 69, 66, 72, 56, 54, 52, 65, 64, 64, 63, 63, 53, 62, 62, 64, 66, 63, 42, 60, 58, 59, 59, 57, 67, 70, 68, 69, 70, 53, 64, 64, 68, 68, 58, 66, 67, 61, 62, 64},
{35, 38, 41, 51, 50, 50, 52, 53, 42, 45, 44, 49, 57, 65, 65, 73, 75, 71, 69, 69, 65, 56, 48, 51, 54, 53, 57, 62, 53, 50, 58, 54, 51, 52, 58, 46, 51, 57, 55, 55, 58, 56, 56, 58, 56, 60, 67, 64, 68, 68, 66, 66, 66, 64, 66, 67, 61, 60, 60, 57, 52, 61, 60, 56, 57, 60, 55, 56, 56, 57, 50, 43, 50, 52, 48, 49, 51, 41, 49, 49, 52, 56, 56, 47, 58, 59, 57, 57, 58, 50, 48, 47, 57, 56, 60, 60, 63, 56, 58, 53},
{167, 169, 202, 223, 203, 191, 195, 171, 152, 153, 153, 185, 220, 210, 236, 289, 309, 299, 310, 309, 273, 225, 202, 229, 217, 231, 246, 260, 234, 227, 238, 226, 207, 191, 225, 186, 207, 236, 233, 213, 228, 256, 226, 255, 257, 242, 206, 218, 222, 221, 235, 231, 232, 216, 218, 208, 205, 206, 201, 206, 201, 204, 211, 199, 187, 201, 230, 224, 233, 226, 230, 205, 196, 218, 214, 192, 204, 205, 178, 183, 206, 169, 167, 151, 190, 181, 193, 198, 193, 176, 176, 170, 209, 225, 228, 236, 241, 225, 243, 227},
{158, 140, 139, 148, 139, 135, 132, 116, 113, 110, 104, 131, 149, 142, 154, 209, 203, 202, 208, 216, 172, 165, 156, 151, 140, 156, 162, 165, 168, 166, 170, 171, 177, 178, 183, 163, 167, 161, 173, 162, 162, 176, 179, 185, 199, 211, 196, 195, 181, 163, 160, 158, 150, 147, 164, 158, 157, 156, 145, 124, 116, 117, 136, 136, 137, 161, 164, 153, 152, 150, 127, 119, 117, 134, 136, 124, 129, 128, 108, 101, 103, 97, 91, 102, 145, 152, 148, 146, 146, 112, 113, 116, 123, 132, 130, 141, 150, 158, 165, 164},
{43, 41, 44, 47, 47, 47, 47, 42, 39, 42, 41, 46, 50, 50, 48, 63, 58, 59, 59, 61, 48, 50, 44, 42, 48, 47, 47, 52, 50, 47, 52, 51, 52, 56, 56, 50, 49, 55, 55, 53, 55, 57, 55, 56, 58, 57, 59, 54, 55, 52, 56, 51, 48, 47, 48, 40, 38, 40, 35, 30, 31, 34, 39, 38, 38, 46, 46, 45, 45, 49, 38, 40, 38, 43, 45, 46, 45, 43, 37, 33, 35, 35, 37, 40, 45, 43, 43, 42, 44, 37, 41, 39, 42, 41, 41, 41, 45, 41, 39, 40},
{73, 78, 81, 71, 62, 52, 47, 42, 41, 40, 41, 39, 39, 46, 49, 60, 60, 63, 56, 55, 43, 46, 39, 42, 40, 41, 40, 41, 47, 53, 57, 55, 62, 58, 56, 52, 57, 59, 57, 54, 60, 63, 58, 60, 60, 52, 46, 46, 45, 45, 46, 44, 37, 43, 45, 44, 44, 47, 39, 38, 39, 45, 44, 45, 44, 42, 51, 54, 57, 59, 62, 51, 48, 43, 42, 41, 44, 44, 44, 44, 40, 32, 31, 30, 27, 27, 34, 34, 38, 43, 44, 40, 41, 37, 34, 44, 45, 44, 44, 44},
{105, 115, 113, 108, 96, 69, 53, 55, 56, 56, 58, 59, 63, 83, 89, 105, 111, 110, 96, 96, 82, 76, 71, 75, 66, 59, 55, 55, 78, 96, 103, 103, 121, 104, 94, 86, 94, 82, 86, 89, 102, 98, 89, 94, 93, 85, 81, 86, 82, 71, 66, 69, 69, 69, 75, 83, 87, 91, 86, 84, 81, 93, 83, 85, 88, 82, 78, 91, 95, 93, 99, 93, 83, 76, 75, 68, 73, 75, 74, 77, 86, 85, 84, 83, 77, 64, 57, 52, 56, 56, 67, 63, 65, 61, 62, 69, 72, 69, 71, 78},
{49, 53, 65, 65, 67, 58, 57, 47, 50, 45, 45, 48, 49, 45, 51, 53, 52, 60, 67, 68, 72, 73, 64, 67, 62, 57, 56, 58, 42, 47, 50, 47, 60, 62, 61, 59, 62, 61, 60, 59, 61, 60, 48, 50, 55, 55, 51, 61, 60, 67, 68, 71, 64, 69, 58, 58, 57, 55, 45, 50, 45, 42, 45, 49, 41, 53, 56, 54, 52, 57, 47, 44, 43, 57, 51, 51, 53, 55, 37, 42, 50, 50, 48, 51, 54, 49, 46, 47, 47, 39, 40, 41, 45, 41, 38, 54, 53, 49, 49, 55}}

// 27 Reading of the 8 sensors, 100 samples per sensor
{{133, 141, 133, 127, 102, 76, 81, 93, 107, 113, 114, 109, 93, 78, 83, 82, 74, 78, 96, 78, 82, 94, 94, 77, 76, 107, 128, 130, 135, 143, 118, 87, 94, 91, 90, 107, 108, 137, 144, 139, 129, 130, 106, 111, 113, 114, 112, 101, 82, 77, 90, 98, 103, 109, 112, 104, 99, 93, 92, 97, 89, 81, 81, 79, 66, 114, 131, 126, 123, 137, 113, 94, 99, 107, 91, 96, 112, 113, 107, 116, 104, 91, 97, 102, 92, 106, 143, 135, 140, 140, 128, 115, 115, 133, 142, 142, 113, 115, 96, 82},
{74, 72, 66, 69, 63, 64, 63, 68, 67, 71, 66, 69, 64, 62, 62, 70, 71, 71, 72, 67, 73, 73, 74, 72, 73, 69, 73, 74, 76, 79, 72, 75, 76, 74, 72, 80, 73, 78, 83, 87, 80, 78, 68, 58, 50, 48, 55, 62, 66, 66, 71, 67, 65, 71, 69, 66, 71, 68, 60, 62, 57, 50, 49, 53, 52, 67, 79, 78, 74, 77, 72, 61, 65, 68, 64, 56, 61, 63, 71, 75, 79, 77, 73, 64, 71, 65, 66, 64, 73, 64, 68, 67, 72, 68, 71, 72, 66, 60, 63, 56},
{216, 258, 246, 261, 285, 330, 311, 325, 314, 307, 267, 259, 265, 286, 304, 304, 292, 267, 233, 187, 182, 213, 246, 283, 274, 342, 339, 328, 322, 310, 236, 305, 313, 309, 313, 343, 269, 269, 273, 273, 235, 277, 254, 231, 239, 246, 209, 222, 249, 254, 250, 271, 258, 292, 312, 307, 297, 297, 266, 247, 242, 238, 246, 229, 205, 195, 185, 207, 198, 206, 238, 260, 255, 258, 255, 237, 208, 191, 206, 215, 242, 246, 266, 251, 277, 247, 234, 227, 241, 192, 236, 246, 239, 233, 276, 239, 242, 229, 228, 185},
{226, 223, 224, 245, 276, 304, 291, 286, 280, 249, 198, 188, 209, 197, 193, 213, 213, 182, 194, 211, 195, 209, 236, 243, 238, 295, 292, 279, 271, 270, 206, 224, 226, 221, 205, 243, 229, 260, 265, 264, 225, 220, 174, 182, 187, 203, 213, 216, 203, 206, 217, 216, 204, 214, 267, 260, 253, 252, 267, 206, 190, 179, 190, 139, 140, 158, 164, 154, 180, 205, 201, 215, 214, 199, 180, 178, 178, 203, 221, 224, 253, 251, 258, 241, 268, 232, 230, 202, 203, 147, 158, 171, 191, 192, 207, 200, 181, 159, 159, 142},
{64, 59, 52, 58, 65, 65, 62, 69, 76, 75, 76, 77, 77, 65, 60, 60, 58, 50, 55, 64, 60, 63, 65, 61, 51, 70, 66, 67, 74, 80, 69, 72, 68, 58, 53, 51, 50, 59, 60, 61, 56, 54, 47, 47, 52, 54, 60, 63, 64, 62, 64, 62, 58, 63, 72, 73, 74, 72, 70, 57, 53, 51, 55, 52, 52, 54, 51, 47, 48, 53, 51, 50, 54, 55, 49, 49, 54, 57, 58, 66, 72, 74, 72, 70, 63, 59, 58, 58, 58, 57, 55, 51, 53, 56, 56, 56, 51, 50, 57, 57},
{77, 76, 62, 56, 54, 57, 58, 67, 67, 69, 70, 69, 69, 70, 68, 64, 66, 56, 64, 61, 62, 61, 68, 59, 58, 61, 61, 53, 55, 60, 59, 62, 72, 74, 73, 73, 67, 58, 58, 57, 51, 56, 55, 52, 53, 64, 62, 61, 67, 64, 54, 56, 56, 48, 56, 59, 60, 57, 60, 58, 54, 49, 51, 49, 42, 44, 44, 42, 44, 45, 43, 42, 47, 46, 54, 62, 63, 62, 60, 63, 62, 64, 67, 72, 61, 61, 60, 56, 50, 50, 43, 41, 43, 49, 52, 55, 54, 55, 61, 62},
{122, 123, 107, 93, 95, 81, 77, 78, 74, 73, 79, 78, 94, 91, 101, 95, 98, 89, 116, 109, 124, 119, 127, 111, 106, 111, 120, 106, 101, 106, 107, 99, 113, 115, 115, 104, 103, 94, 94, 92, 85, 94, 94, 88, 91, 96, 87, 82, 83, 76, 69, 84, 83, 80, 90, 99, 100, 103, 104, 102, 96, 85, 93, 113, 108, 101, 107, 94, 69, 86, 90, 84, 90, 94, 103, 103, 100, 95, 94, 81, 77, 85, 105, 109, 101, 100, 103, 92, 86, 89, 92, 88, 97, 106, 103, 104, 104, 88, 86, 93},
{139, 135, 141, 142, 140, 94, 86, 105, 113, 108, 113, 115, 91, 78, 69, 56, 51, 58, 64, 60, 63, 66, 66, 62, 68, 107, 116, 113, 112, 122, 91, 76, 84, 86, 70, 79, 84, 91, 95, 94, 91, 89, 95, 105, 106, 109, 112, 95, 78, 75, 70, 65, 70, 70, 76, 122, 128, 129, 132, 140, 98, 87, 85, 82, 66, 100, 121, 119, 118, 120, 119, 97, 96, 95, 97, 74, 73, 82, 91, 103, 104, 109, 105, 102, 81, 94, 92, 88, 96, 107, 90, 86, 96, 93, 81, 78, 83, 81, 73, 117}}

// 28 Reading of the 8 sensors, 100 samples per sensor
{{114, 103, 95, 78, 83, 94, 96, 96, 103, 109, 114, 136, 149, 140, 160, 154, 155, 146, 152, 134, 147, 127, 131, 125, 118, 100, 103, 85, 112, 127, 135, 143, 144, 130, 129, 121, 124, 131, 127, 115, 125, 114, 110, 124, 120, 111, 107, 116, 102, 110, 108, 128, 116, 110, 111, 136, 122, 124, 139, 128, 100, 112, 111, 92, 104, 99, 82, 106, 108, 99, 98, 105, 105, 104, 109, 112, 100, 71, 79, 85, 80, 84, 102, 104, 97, 99, 101, 88, 81, 83, 82, 77, 81, 82, 74, 79, 82, 71, 91, 90},
{54, 62, 58, 60, 62, 65, 62, 66, 66, 73, 76, 75, 73, 74, 70, 73, 74, 77, 73, 71, 59, 65, 64, 72, 76, 85, 93, 93, 91, 85, 82, 70, 65, 62, 74, 75, 91, 95, 92, 86, 86, 66, 62, 65, 67, 66, 66, 74, 83, 83, 82, 82, 78, 78, 77, 76, 77, 74, 76, 73, 79, 89, 91, 85, 87, 84, 79, 78, 73, 78, 72, 67, 66, 66, 60, 62, 65, 65, 62, 60, 59, 55, 61, 63, 68, 68, 69, 61, 62, 57, 59, 55, 57, 67, 70, 67, 70, 72, 65, 70},
{250, 261, 269, 295, 320, 319, 373, 372, 354, 333, 324, 235, 237, 227, 218, 204, 218, 228, 227, 240, 251, 254, 261, 278, 290, 273, 286, 279, 289, 310, 326, 310, 299, 288, 256, 248, 277, 308, 293, 286, 293, 262, 230, 226, 233, 203, 190, 223, 255, 245, 268, 273, 236, 214, 239, 229, 236, 269, 259, 244, 240, 269, 257, 266, 271, 268, 257, 235, 234, 226, 232, 214, 217, 200, 182, 158, 153, 148, 155, 181, 227, 234, 287, 300, 307, 284, 276, 219, 220, 198, 204, 201, 213, 204, 259, 244, 249, 236, 250, 211},
{168, 165, 168, 201, 235, 244, 246, 237, 215, 206, 199, 197, 234, 241, 215, 224, 254, 248, 279, 300, 305, 283, 282, 247, 220, 216, 231, 222, 225, 229, 213, 189, 196, 199, 221, 243, 252, 274, 310, 313, 319, 329, 316, 280, 267, 246, 216, 226, 237, 229, 238, 250, 228, 202, 217, 206, 205, 209, 212, 209, 206, 206, 201, 217, 205, 202, 190, 177, 165, 193, 193, 201, 211, 203, 199, 188, 182, 166, 157, 167, 187, 200, 216, 226, 232, 215, 207, 208, 206, 172, 175, 165, 158, 154, 189, 181, 182, 184, 221, 203},
{51, 50, 54, 55, 60, 58, 60, 57, 60, 59, 65, 61, 60, 56, 53, 46, 57, 59, 68, 73, 80, 76, 79, 72, 65, 53, 53, 50, 55, 55, 57, 54, 55, 49, 53, 49, 65, 63, 73, 76, 79, 71, 69, 59, 52, 56, 55, 63, 67, 69, 67, 69, 64, 60, 63, 61, 60, 59, 57, 51, 54, 51, 52, 61, 63, 62, 65, 64, 56, 60, 58, 52, 52, 53, 47, 45, 43, 42, 41, 52, 55, 56, 55, 55, 49, 48, 47, 48, 49, 41, 36, 39, 39, 39, 48, 48, 48, 48, 53, 56},
{67, 66, 62, 61, 61, 66, 66, 67, 86, 88, 86, 87, 87, 67, 64, 59, 60, 63, 61, 60, 61, 62, 59, 56, 59, 63, 56, 54, 58, 56, 51, 52, 54, 51, 56, 54, 56, 57, 60, 53, 57, 57, 53, 52, 55, 53, 55, 66, 66, 63, 60, 57, 44, 41, 44, 46, 56, 58, 60, 62, 65, 57, 55, 56, 49, 45, 45, 53, 48, 53, 53, 52, 46, 45, 44, 52, 51, 49, 48, 45, 36, 41, 45, 44, 46, 45, 40, 40, 41, 39, 42, 43, 47, 51, 57, 59, 65, 65, 68, 63},
{108, 130, 125, 116, 120, 118, 101, 88, 132, 138, 137, 143, 145, 120, 111, 109, 100, 102, 92, 94, 97, 92, 101, 96, 106, 117, 113, 102, 104, 103, 89, 97, 99, 103, 110, 108, 105, 102, 109, 93, 99, 105, 108, 98, 94, 92, 95, 105, 101, 101, 108, 102, 90, 90, 93, 79, 80, 82, 86, 84, 82, 74, 74, 81, 79, 81, 92, 99, 90, 101, 100, 95, 81, 88, 86, 106, 102, 101, 93, 86, 54, 54, 64, 72, 74, 73, 76, 70, 69, 63, 64, 60, 70, 66, 69, 82, 91, 91, 100, 98},
{81, 71, 69, 75, 74, 79, 79, 71, 72, 95, 130, 155, 155, 152, 162, 138, 114, 113, 132, 107, 141, 140, 141, 142, 143, 106, 102, 99, 81, 103, 102, 108, 113, 109, 87, 108, 108, 104, 108, 106, 84, 96, 119, 127, 137, 133, 120, 102, 96, 89, 93, 96, 86, 72, 61, 94, 98, 97, 108, 105, 76, 77, 77, 70, 77, 76, 77, 90, 85, 80, 87, 78, 67, 64, 68, 60, 66, 61, 62, 78, 77, 72, 95, 100, 83, 82, 82, 55, 52, 56, 56, 62, 61, 72, 71, 70, 66, 69, 58, 57}}

// 29 Reading of the 8 sensors, 100 samples per sensor
{{74, 72, 73, 74, 65, 81, 97, 105, 106, 101, 90, 142, 137, 134, 143, 148, 104, 113, 121, 115, 119, 132, 129, 121, 129, 119, 116, 123, 119, 113, 143, 122, 111, 134, 131, 130, 132, 133, 118, 138, 111, 117, 115, 106, 142, 147, 146, 158, 167, 123, 120, 113, 96, 104, 110, 107, 130, 137, 136, 145, 148, 132, 136, 129, 109, 99, 105, 90, 87, 101, 103, 91, 98, 134, 122, 134, 134, 128, 144, 150, 139, 147, 166, 121, 117, 123, 117, 88, 98, 99, 100, 103, 124, 123, 122, 123, 122, 99, 101, 100},
{82, 74, 70, 68, 79, 85, 87, 86, 89, 72, 72, 79, 85, 81, 96, 93, 96, 92, 96, 80, 76, 73, 80, 71, 78, 76, 79, 73, 75, 76, 83, 73, 72, 76, 79, 77, 74, 77, 73, 70, 73, 79, 78, 76, 75, 67, 66, 73, 76, 72, 79, 76, 67, 68, 65, 62, 63, 66, 68, 79, 76, 88, 86, 82, 75, 71, 52, 51, 55, 52, 59, 60, 59, 57, 63, 62, 62, 62, 67, 68, 65, 69, 75, 72, 71, 74, 69, 73, 75, 111, 111, 111, 106, 109, 76, 72, 71, 71, 65, 58},
{239, 250, 266, 270, 277, 276, 268, 269, 255, 278, 273, 311, 320, 326, 307, 311, 278, 280, 309, 305, 290, 300, 296, 278, 294, 289, 338, 338, 322, 306, 324, 249, 227, 275, 262, 261, 296, 315, 274, 295, 310, 320, 306, 343, 342, 307, 264, 294, 308, 307, 360, 367, 360, 326, 342, 295, 295, 282, 258, 276, 275, 304, 311, 314, 264, 270, 232, 246, 268, 272, 291, 282, 252, 284, 275, 260, 268, 257, 242, 250, 246, 242, 283, 254, 260, 295, 291, 249, 258, 334, 301, 322, 362, 370, 294, 301, 289, 237, 214, 235},
{205, 204, 200, 184, 164, 200, 187, 218, 268, 261, 246, 248, 233, 194, 211, 198, 224, 277, 267, 282, 322, 301, 262, 280, 278, 265, 275, 294, 284, 271, 245, 232, 187, 202, 189, 198, 277, 294, 291, 300, 307, 263, 256, 253, 256, 230, 225, 211, 222, 230, 254, 240, 249, 272, 263, 255, 249, 255, 232, 219, 217, 236, 253, 238, 236, 247, 238, 216, 217, 222, 202, 222, 251, 265, 261, 259, 231, 203, 173, 172, 187, 207, 219, 247, 243, 257, 254, 232, 225, 231, 203, 205, 239, 229, 229, 223, 219, 175, 163, 176},
{49, 49, 52, 56, 62, 67, 67, 63, 64, 57, 54, 51, 50, 48, 53, 50, 55, 60, 62, 56, 66, 64, 65, 65, 70, 66, 70, 80, 84, 82, 80, 77, 61, 52, 48, 44, 49, 53, 55, 58, 65, 65, 67, 66, 63, 59, 56, 54, 53, 59, 62, 59, 56, 61, 58, 56, 61, 63, 62, 61, 57, 54, 58, 56, 53, 65, 69, 64, 67, 69, 65, 61, 67, 65, 66, 63, 61, 56, 51, 53, 48, 50, 51, 54, 50, 54, 56, 56, 54, 61, 61, 56, 58, 57, 52, 52, 58, 55, 59, 58},
{47, 43, 49, 53, 73, 69, 69, 69, 74, 56, 59, 71, 70, 62, 70, 70, 60, 58, 61, 54, 57, 61, 64, 63, 69, 67, 63, 62, 59, 52, 50, 43, 45, 48, 52, 50, 70, 71, 71, 66, 68, 52, 58, 57, 58, 62, 63, 55, 54, 62, 56, 51, 60, 69, 65, 67, 74, 68, 63, 66, 66, 63, 60, 58, 56, 51, 49, 54, 59, 53, 59, 65, 61, 54, 55, 51, 43, 42, 46, 50, 50, 55, 52, 51, 46, 49, 52, 64, 64, 65, 63, 53, 38, 39, 39, 44, 46, 57, 57, 60},
{74, 62, 63, 57, 71, 71, 75, 78, 92, 90, 91, 110, 114, 99, 100, 108, 87, 81, 81, 73, 64, 68, 68, 82, 104, 102, 104, 104, 101, 89, 88, 82, 79, 83, 79, 78, 112, 126, 121, 118, 134, 116, 112, 112, 116, 116, 112, 100, 102, 111, 94, 89, 102, 113, 104, 104, 113, 101, 98, 102, 114, 108, 110, 99, 101, 86, 92, 101, 100, 89, 97, 96, 89, 90, 88, 86, 78, 78, 82, 90, 83, 83, 80, 80, 70, 87, 97, 134, 137, 145, 140, 134, 102, 101, 93, 90, 89, 93, 95, 105},
{54, 57, 58, 60, 73, 74, 78, 78, 76, 63, 70, 63, 60, 59, 60, 51, 55, 59, 61, 62, 67, 73, 75, 71, 78, 79, 79, 77, 76, 75, 74, 64, 58, 61, 66, 64, 81, 108, 109, 104, 117, 111, 89, 90, 87, 82, 102, 103, 110, 111, 101, 77, 84, 86, 113, 124, 131, 127, 125, 115, 138, 143, 149, 145, 140, 106, 132, 128, 133, 133, 130, 88, 86, 97, 90, 97, 96, 92, 79, 101, 101, 106, 108, 101, 80, 95, 91, 86, 93, 104, 84, 79, 117, 116, 105, 108, 108, 70, 83, 92}}

// 30 Reading of the 8 sensors, 100 samples per sensor
{{124, 127, 118, 142, 163, 172, 177, 203, 188, 173, 160, 170, 156, 150, 143, 160, 162, 146, 146, 157, 157, 147, 146, 165, 167, 157, 158, 171, 178, 178, 180, 175, 159, 138, 137, 165, 178, 192, 195, 220, 205, 187, 173, 196, 169, 162, 181, 216, 196, 191, 189, 180, 168, 164, 168, 185, 187, 187, 188, 227, 210, 205, 190, 189, 128, 139, 143, 160, 160, 172, 170, 167, 153, 139, 125, 120, 124, 102, 122, 128, 140, 140, 143, 129, 126, 138, 132, 121, 134, 135, 100, 91, 123, 133, 138, 151, 153, 137, 119, 108},
{107, 103, 114, 133, 130, 126, 121, 115, 100, 106, 119, 128, 124, 126, 120, 104, 99, 104, 101, 98, 104, 103, 96, 100, 100, 99, 101, 100, 97, 110, 115, 116, 132, 129, 121, 111, 114, 108, 97, 92, 118, 123, 121, 131, 133, 113, 100, 97, 87, 100, 105, 108, 109, 109, 98, 94, 106, 99, 98, 103, 101, 89, 102, 105, 103, 99, 95, 81, 83, 89, 90, 103, 101, 93, 80, 82, 77, 74, 79, 80, 83, 81, 87, 84, 79, 75, 73, 75, 85, 89, 86, 80, 76, 71, 67, 76, 77, 78, 75, 89},
{408, 359, 389, 485, 480, 522, 511, 487, 407, 418, 350, 356, 395, 396, 415, 411, 448, 418, 374, 332, 389, 336, 325, 366, 371, 325, 339, 357, 365, 399, 464, 484, 476, 460, 465, 398, 363, 385, 417, 382, 384, 382, 408, 371, 352, 350, 357, 335, 328, 392, 394, 381, 399, 400, 365, 387, 397, 361, 340, 366, 330, 323, 345, 383, 354, 342, 345, 349, 315, 343, 349, 410, 374, 365, 336, 336, 310, 320, 346, 332, 346, 312, 391, 378, 393, 385, 396, 329, 324, 312, 291, 299, 322, 350, 345, 380, 358, 358, 362, 392},
{487, 480, 477, 470, 448, 484, 450, 419, 418, 443, 422, 408, 498, 459, 451, 457, 475, 390, 393, 372, 390, 393, 363, 358, 358, 316, 246, 258, 305, 304, 386, 418, 416, 412, 447, 379, 348, 442, 435, 406, 419, 423, 331, 303, 290, 277, 305, 310, 318, 377, 365, 358, 360, 370, 355, 370, 375, 365, 354, 344, 340, 327, 325, 348, 303, 286, 266, 295, 273, 273, 293, 306, 279, 276, 290, 254, 311, 308, 310, 299, 321, 264, 311, 310, 313, 318, 318, 272, 276, 275, 238, 292, 315, 323, 321, 345, 280, 272, 252, 306},
{108, 111, 110, 114, 97, 105, 107, 105, 94, 98, 92, 78, 103, 104, 103, 98, 101, 77, 68, 61, 73, 70, 67, 83, 88, 89, 89, 91, 85, 87, 89, 88, 89, 85, 85, 72, 70, 86, 94, 92, 101, 106, 91, 82, 87, 79, 72, 82, 78, 78, 80, 91, 90, 93, 87, 87, 87, 81, 80, 81, 83, 68, 70, 74, 73, 66, 72, 76, 79, 80, 82, 80, 75, 65, 63, 65, 63, 69, 71, 81, 87, 86, 86, 84, 73, 69, 76, 86, 95, 95, 92, 98, 87, 77, 79, 83, 79, 73, 80, 98},
{106, 101, 91, 88, 93, 86, 85, 89, 91, 82, 74, 75, 81, 76, 75, 76, 69, 55, 67, 76, 75, 76, 77, 71, 60, 66, 67, 71, 73, 74, 76, 88, 83, 81, 82, 73, 56, 63, 64, 63, 66, 63, 55, 55, 60, 61, 63, 76, 75, 74, 74, 75, 68, 69, 65, 64, 66, 64, 62, 79, 81, 79, 87, 93, 80, 80, 88, 78, 74, 73, 75, 60, 69, 67, 67, 67, 71, 64, 64, 81, 83, 83, 85, 84, 70, 61, 65, 60, 60, 57, 60, 53, 52, 54, 55, 55, 59, 65, 64, 64},
{176, 162, 147, 157, 177, 183, 191, 197, 202, 179, 148, 136, 145, 123, 118, 122, 122, 102, 124, 152, 150, 152, 153, 154, 136, 138, 132, 157, 132, 122, 127, 131, 104, 120, 116, 106, 116, 113, 113, 121, 136, 122, 119, 123, 126, 114, 119, 153, 144, 139, 141, 140, 113, 118, 124, 133, 167, 174, 165, 176, 174, 154, 167, 173, 155, 140, 154, 139, 139, 147, 156, 127, 121, 120, 110, 119, 124, 116, 116, 137, 133, 131, 125, 124, 102, 91, 115, 125, 117, 118, 121, 98, 113, 119, 117, 111, 116, 101, 106, 103},
{142, 152, 157, 149, 186, 184, 180, 201, 191, 173, 175, 171, 150, 176, 152, 141, 136, 141, 140, 139, 144, 157, 154, 130, 121, 119, 115, 113, 139, 151, 159, 177, 171, 155, 152, 170, 161, 162, 157, 167, 141, 139, 152, 167, 165, 167, 167, 202, 199, 186, 180, 171, 119, 103, 104, 113, 116, 126, 126, 162, 159, 155, 140, 162, 127, 131, 148, 166, 150, 153, 159, 152, 140, 131, 135, 120, 103, 87, 93, 104, 118, 120, 125, 139, 124, 123, 120, 122, 108, 104, 91, 87, 100, 96, 95, 102, 99, 93, 96, 96}}

// 31 Reading of the 8 sensors, 100 samples per sensor
{{149, 146, 145, 140, 148, 155, 152, 154, 168, 150, 145, 142, 140, 124, 103, 112, 126, 130, 127, 133, 147, 140, 157, 177, 190, 173, 173, 158, 129, 120, 115, 117, 116, 115, 110, 103, 136, 149, 162, 157, 172, 157, 139, 127, 142, 138, 128, 145, 143, 151, 142, 152, 137, 135, 105, 110, 103, 127, 144, 146, 146, 172, 158, 150, 164, 172, 143, 169, 187, 176, 169, 161, 168, 147, 148, 158, 175, 138, 143, 140, 147, 142, 149, 137, 132, 113, 87, 92, 92, 122, 115, 117, 149, 152, 151, 156, 155, 124, 158, 143},
{102, 85, 94, 90, 89, 82, 92, 80, 91, 92, 97, 96, 92, 76, 72, 69, 73, 88, 97, 103, 105, 99, 95, 110, 105, 105, 107, 107, 120, 138, 145, 153, 154, 141, 140, 134, 122, 113, 118, 107, 104, 109, 113, 97, 93, 92, 98, 103, 114, 121, 119, 113, 110, 99, 94, 105, 121, 130, 131, 135, 143, 139, 134, 134, 127, 127, 149, 148, 145, 147, 133, 101, 113, 112, 109, 104, 104, 93, 108, 110, 110, 113, 107, 92, 93, 93, 79, 76, 77, 73, 80, 90, 100, 106, 107, 122, 127, 119, 111, 119},
{345, 328, 410, 383, 397, 402, 425, 355, 368, 358, 411, 433, 418, 425, 412, 372, 335, 367, 326, 365, 360, 337, 317, 316, 271, 300, 314, 352, 390, 460, 484, 497, 494, 501, 504, 458, 451, 438, 391, 311, 352, 348, 318, 318, 317, 254, 229, 274, 306, 346, 360, 364, 353, 352, 351, 344, 386, 380, 353, 361, 356, 309, 319, 348, 311, 366, 436, 411, 398, 414, 362, 285, 329, 339, 320, 328, 363, 353, 386, 389, 418, 394, 377, 328, 312, 290, 284, 285, 321, 361, 340, 353, 355, 321, 307, 340, 348, 355, 350, 364},
{217, 275, 314, 322, 320, 342, 309, 274, 275, 294, 312, 337, 347, 347, 327, 316, 285, 278, 264, 255, 217, 201, 167, 165, 171, 226, 230, 257, 283, 306, 278, 292, 284, 272, 285, 335, 340, 340, 329, 298, 283, 266, 259, 261, 287, 254, 264, 299, 301, 290, 301, 288, 249, 238, 227, 198, 222, 219, 213, 261, 266, 263, 287, 328, 300, 339, 347, 343, 305, 305, 248, 236, 212, 246, 229, 240, 216, 225, 221, 230, 261, 279, 272, 262, 248, 203, 201, 202, 197, 236, 227, 211, 205, 188, 178, 254, 275, 295, 298, 299},
{66, 73, 81, 78, 81, 88, 88, 75, 74, 72, 72, 69, 71, 73, 69, 64, 62, 63, 61, 65, 62, 57, 56, 55, 62, 72, 72, 69, 71, 69, 65, 73, 78, 82, 86, 81, 81, 80, 78, 66, 70, 66, 63, 61, 69, 67, 65, 75, 78, 74, 77, 82, 75, 70, 71, 65, 68, 65, 64, 69, 81, 74, 78, 92, 88, 81, 81, 78, 61, 58, 52, 51, 50, 52, 56, 63, 70, 70, 72, 76, 78, 71, 73, 77, 75, 65, 67, 64, 52, 50, 47, 43, 45, 52, 49, 61, 65, 72, 65, 73},
{63, 60, 62, 59, 64, 59, 76, 73, 69, 64, 62, 47, 52, 57, 55, 56, 54, 52, 66, 68, 68, 76, 87, 86, 89, 91, 91, 84, 73, 70, 70, 68, 62, 66, 70, 69, 61, 66, 67, 65, 72, 82, 77, 75, 82, 75, 81, 82, 82, 73, 78, 66, 68, 65, 70, 63, 61, 61, 64, 57, 61, 61, 70, 79, 78, 77, 76, 69, 57, 61, 62, 64, 60, 59, 56, 57, 57, 63, 65, 67, 62, 62, 63, 62, 58, 63, 58, 51, 49, 52, 46, 53, 53, 65, 64, 64, 62, 70, 64, 63},
{104, 89, 79, 74, 83, 73, 77, 80, 80, 71, 86, 90, 115, 114, 120, 118, 130, 113, 129, 120, 122, 108, 139, 141, 146, 146, 149, 128, 111, 107, 98, 105, 92, 92, 117, 117, 103, 117, 121, 105, 126, 141, 130, 124, 151, 136, 132, 133, 147, 117, 128, 126, 133, 120, 119, 108, 97, 105, 102, 96, 104, 115, 110, 116, 118, 114, 113, 102, 101, 104, 98, 105, 109, 109, 108, 109, 102, 101, 98, 99, 103, 92, 107, 102, 95, 94, 100, 93, 102, 106, 102, 101, 100, 106, 104, 100, 99, 95, 88, 84},
{144, 146, 141, 144, 156, 174, 175, 173, 195, 182, 169, 165, 176, 129, 106, 138, 145, 137, 150, 159, 123, 112, 153, 156, 156, 172, 173, 134, 121, 120, 92, 87, 81, 112, 111, 120, 127, 171, 156, 151, 159, 161, 118, 107, 144, 131, 139, 145, 150, 126, 129, 154, 145, 139, 129, 144, 99, 111, 125, 133, 115, 132, 122, 147, 144, 147, 136, 149, 136, 134, 153, 151, 140, 118, 125, 109, 111, 113, 129, 127, 129, 127, 131, 125, 121, 107, 103, 91, 78, 69, 67, 74, 105, 110, 113, 111, 120, 101, 103, 101}}

// 32 Reading of the 8 sensors, 100 samples per sensor
{{70, 90, 92, 84, 97, 90, 74, 71, 89, 75, 72, 75, 84, 66, 64, 65, 67, 57, 54, 85, 88, 81, 80, 86, 71, 70, 68, 71, 80, 69, 77, 79, 75, 62, 84, 76, 75, 88, 92, 74, 74, 86, 73, 75, 79, 78, 67, 81, 75, 73, 83, 85, 71, 72, 68, 56, 59, 84, 82, 82, 89, 84, 60, 72, 78, 68, 97, 100, 92, 90, 103, 79, 74, 83, 77, 57, 62, 73, 63, 68, 92, 88, 80, 90, 89, 65, 66, 88, 78, 75, 77, 86, 62, 62, 67, 78, 69, 70, 69, 82},
{62, 58, 56, 58, 60, 58, 61, 64, 60, 58, 52, 47, 49, 48, 54, 56, 58, 54, 55, 62, 66, 75, 80, 78, 70, 67, 50, 48, 52, 55, 57, 61, 63, 60, 58, 56, 53, 53, 59, 57, 55, 55, 50, 47, 51, 48, 52, 50, 48, 49, 49, 53, 56, 61, 60, 62, 68, 68, 63, 74, 72, 60, 58, 54, 37, 46, 46, 49, 52, 53, 53, 52, 49, 51, 47, 41, 40, 42, 45, 47, 46, 46, 49, 41, 43, 44, 50, 46, 47, 47, 46, 39, 40, 44, 48, 54, 59, 62, 60, 57},
{210, 177, 200, 220, 227, 241, 239, 237, 229, 219, 215, 208, 201, 196, 200, 189, 188, 170, 172, 209, 224, 295, 314, 307, 276, 280, 206, 184, 203, 214, 198, 217, 244, 231, 236, 246, 233, 203, 211, 190, 202, 209, 206, 212, 219, 186, 182, 193, 182, 186, 187, 184, 171, 178, 173, 170, 211, 226, 217, 224, 228, 187, 169, 178, 171, 210, 208, 225, 216, 214, 189, 187, 164, 163, 161, 141, 138, 146, 162, 158, 158, 163, 167, 146, 149, 165, 185, 179, 192, 190, 180, 175, 166, 183, 182, 211, 208, 228, 223, 232},
{167, 180, 204, 216, 218, 256, 255, 237, 217, 212, 171, 155, 172, 186, 194, 210, 214, 201, 189, 175, 165, 208, 212, 209, 205, 187, 125, 115, 107, 114, 113, 129, 131, 132, 139, 160, 150, 146, 156, 146, 134, 142, 142, 144, 140, 120, 131, 132, 112, 118, 128, 115, 145, 151, 158, 151, 170, 159, 153, 160, 170, 149, 139, 149, 132, 128, 151, 161, 155, 167, 165, 150, 141, 157, 142, 139, 132, 124, 117, 127, 127, 123, 126, 125, 122, 121, 135, 146, 159, 153, 153, 137, 124, 110, 123, 131, 157, 166, 160, 159},
{57, 51, 48, 48, 47, 51, 59, 58, 56, 59, 56, 48, 52, 50, 50, 54, 54, 54, 53, 52, 51, 56, 57, 58, 57, 54, 50, 46, 49, 47, 45, 48, 44, 41, 42, 42, 37, 42, 44, 44, 46, 48, 44, 44, 45, 43, 49, 52, 56, 54, 56, 54, 58, 52, 53, 48, 43, 35, 40, 48, 51, 52, 54, 53, 43, 48, 48, 50, 46, 52, 46, 47, 44, 50, 44, 45, 45, 44, 44, 44, 48, 49, 49, 42, 44, 37, 37, 38, 43, 45, 45, 43, 44, 45, 47, 51, 53, 54, 49, 47},
{51, 53, 51, 55, 62, 59, 60, 61, 57, 49, 48, 44, 43, 46, 46, 43, 49, 48, 52, 55, 55, 49, 51, 45, 44, 44, 51, 50, 56, 57, 60, 65, 66, 62, 61, 57, 54, 55, 57, 57, 59, 53, 52, 55, 56, 58, 56, 57, 53, 53, 49, 49, 48, 48, 43, 44, 45, 46, 50, 60, 59, 59, 62, 65, 57, 62, 63, 61, 56, 55, 49, 53, 54, 54, 57, 57, 63, 58, 56, 56, 60, 51, 52, 52, 49, 45, 45, 47, 48, 54, 51, 49, 49, 51, 49, 54, 56, 56, 55, 51},
{87, 100, 100, 120, 136, 131, 119, 120, 100, 78, 85, 85, 84, 85, 86, 83, 79, 72, 76, 101, 96, 99, 106, 102, 77, 71, 80, 89, 99, 104, 111, 122, 110, 106, 116, 121, 103, 111, 112, 100, 87, 90, 101, 107, 110, 127, 125, 106, 95, 107, 85, 85, 89, 84, 59, 61, 66, 83, 91, 95, 102, 106, 95, 99, 101, 106, 100, 114, 117, 119, 109, 119, 105, 92, 85, 88, 101, 104, 103, 98, 104, 83, 80, 84, 83, 72, 75, 76, 80, 86, 89, 88, 95, 94, 90, 94, 91, 87, 84, 80},
{71, 68, 54, 54, 61, 57, 59, 62, 64, 66, 66, 63, 64, 61, 53, 51, 53, 48, 48, 60, 64, 59, 61, 68, 63, 63, 68, 66, 59, 54, 60, 55, 58, 58, 62, 58, 58, 57, 66, 69, 65, 73, 74, 71, 63, 65, 54, 61, 60, 59, 61, 69, 59, 55, 60, 55, 45, 62, 61, 58, 61, 68, 55, 61, 64, 64, 65, 64, 57, 54, 59, 54, 54, 59, 58, 54, 58, 59, 54, 54, 59, 53, 53, 59, 60, 56, 71, 78, 75, 81, 77, 67, 61, 61, 54, 58, 53, 61, 60, 56}}

// 33 Reading of the 8 sensors, 100 samples per sensor
{{70, 62, 86, 98, 101, 109, 113, 105, 97, 101, 87, 81, 84, 86, 90, 108, 109, 97, 93, 91, 111, 115, 122, 128, 123, 88, 94, 93, 87, 85, 97, 107, 101, 98, 102, 91, 67, 96, 114, 148, 171, 171, 172, 164, 139, 111, 133, 124, 132, 133, 134, 109, 113, 112, 104, 104, 123, 122, 109, 106, 117, 98, 106, 124, 123, 116, 116, 98, 75, 83, 171, 174, 201, 224, 227, 177, 195, 166, 145, 136, 132, 102, 99, 81, 116, 132, 132, 137, 168, 151, 143, 151, 173, 149, 156, 155, 161, 150, 143, 132},
{79, 90, 88, 102, 104, 105, 99, 105, 90, 87, 88, 86, 77, 75, 72, 71, 68, 79, 83, 80, 75, 76, 71, 75, 74, 71, 69, 64, 52, 59, 59, 57, 63, 72, 74, 76, 79, 77, 69, 70, 73, 76, 82, 84, 81, 75, 84, 91, 102, 99, 101, 90, 73, 64, 78, 78, 81, 86, 80, 64, 67, 62, 74, 84, 91, 96, 96, 87, 75, 67, 54, 53, 50, 58, 60, 79, 78, 77, 78, 75, 56, 64, 69, 64, 71, 77, 69, 64, 83, 82, 83, 91, 99, 84, 81, 83, 74, 75, 72, 76},
{336, 334, 314, 349, 333, 330, 324, 327, 277, 244, 209, 229, 230, 211, 238, 269, 264, 267, 289, 270, 259, 254, 234, 236, 236, 219, 214, 222, 194, 192, 190, 174, 168, 212, 215, 264, 272, 301, 290, 309, 272, 284, 263, 256, 232, 217, 244, 257, 256, 263, 279, 244, 212, 235, 247, 240, 250, 260, 237, 219, 214, 222, 220, 232, 228, 263, 253, 249, 245, 246, 206, 188, 185, 155, 151, 189, 204, 204, 226, 229, 201, 209, 217, 205, 208, 231, 218, 212, 217, 209, 187, 191, 210, 209, 235, 230, 222, 215, 214, 196},
