EMG data generated by the Myo Armband in response to different hand gestures used to control a prosthesis.
EMG data of the Myo Armband for the hand gesture that generates the lateral grasp in the prosthesis.

// 1 Reading of the 8 sensors, 100 samples per sensorr
{{47, 46, 47, 48, 48, 51, 53, 51, 53, 55, 51, 49, 47, 41, 38, 41, 39, 41, 40, 38, 39, 41, 42, 44, 43, 43, 42, 38, 40, 43, 44, 44, 46, 42, 41, 41, 46, 49, 51, 50, 48, 45, 41, 46, 44, 45, 43, 42, 39, 39, 39, 42, 43, 43, 44, 51, 50, 53, 51, 53, 46, 45, 40, 40, 38, 43, 44, 49, 47, 45, 38, 38, 31, 34, 36, 36, 36, 41, 39, 39, 40, 40, 35, 37, 41, 45, 44, 49, 50, 49, 45, 46, 46, 47, 46, 47, 53, 49, 46, 47},
{147, 139, 159, 153, 163, 155, 162, 163, 170, 167, 171, 166, 147, 130, 132, 123, 119, 119, 114, 106, 105, 108, 103, 112, 104, 111, 120, 119, 113, 127, 143, 131, 132, 132, 134, 106, 127, 157, 168, 157, 160, 162, 138, 127, 123, 131, 122, 110, 141, 142, 142, 140, 142, 108, 116, 127, 150, 158, 177, 175, 158, 136, 144, 115, 118, 143, 154, 144, 145, 138, 120, 110, 110, 118, 120, 119, 109, 118, 109, 114, 122, 145, 131, 135, 133, 133, 102, 106, 105, 112, 98, 99, 97, 109, 103, 104, 114, 112, 103, 98},
{289, 283, 319, 300, 338, 302, 307, 287, 298, 266, 274, 244, 269, 257, 256, 321, 331, 306, 299, 299, 227, 241, 236, 242, 242, 257, 240, 236, 223, 253, 241, 236, 228, 226, 203, 182, 199, 260, 336, 342, 357, 400, 382, 372, 362, 368, 307, 283, 275, 281, 262, 283, 290, 235, 227, 216, 207, 220, 223, 237, 267, 304, 290, 280, 276, 294, 238, 259, 261, 250, 214, 218, 204, 210, 212, 213, 217, 227, 229, 240, 251, 279, 268, 268, 253, 237, 201, 187, 180, 194, 206, 198, 206, 213, 220, 196, 222, 244, 250, 266},
{227, 240, 270, 270, 280, 280, 287, 267, 210, 208, 201, 180, 206, 251, 248, 253, 269, 243, 202, 185, 175, 170, 179, 178, 177, 191, 190, 197, 210, 254, 269, 274, 276, 272, 269, 246, 266, 280, 283, 272, 280, 290, 297, 335, 324, 327, 285, 250, 187, 197, 192, 199, 188, 203, 196, 204, 224, 258, 254, 297, 290, 267, 240, 234, 187, 182, 217, 222, 220, 256, 259, 234, 237, 235, 195, 189, 213, 214, 228, 215, 237, 248, 248, 278, 289, 271, 273, 281, 247, 247, 245, 206, 206, 188, 183, 225, 252, 237, 263, 256},
{211, 213, 215, 194, 192, 198, 216, 214, 195, 217, 201, 173, 166, 198, 184, 183, 203, 201, 173, 154, 147, 141, 166, 170, 182, 193, 201, 183, 184, 194, 230, 227, 244, 253, 253, 247, 270, 255, 256, 259, 228, 205, 220, 229, 217, 227, 204, 187, 159, 163, 141, 160, 158, 195, 201, 225, 229, 248, 229, 261, 247, 231, 212, 202, 171, 174, 188, 182, 182, 196, 209, 200, 202, 210, 174, 157, 168, 165, 174, 169, 172, 176, 188, 225, 234, 240, 247, 245, 214, 218, 204, 186, 185, 158, 151, 185, 205, 196, 206, 194},
{84, 85, 75, 68, 71, 64, 58, 55, 57, 53, 41, 48, 51, 60, 66, 68, 66, 68, 63, 54, 55, 55, 59, 61, 63, 61, 64, 56, 53, 58, 74, 73, 78, 79, 79, 76, 81, 81, 81, 82, 73, 71, 67, 70, 67, 69, 64, 63, 60, 58, 51, 61, 60, 64, 68, 78, 71, 79, 75, 76, 73, 73, 65, 69, 77, 73, 72, 71, 65, 47, 44, 49, 47, 54, 54, 56, 52, 55, 57, 57, 60, 63, 66, 65, 68, 67, 65, 65, 66, 64, 62, 65, 59, 53, 56, 55, 64, 65, 68, 63},
{54, 55, 51, 51, 50, 43, 44, 44, 42, 43, 41, 40, 42, 43, 45, 45, 47, 49, 50, 50, 53, 54, 54, 58, 54, 52, 51, 53, 48, 52, 54, 52, 51, 52, 50, 55, 57, 58, 59, 64, 59, 63, 62, 61, 57, 64, 59, 58, 61, 61, 52, 64, 64, 68, 69, 73, 63, 65, 54, 52, 47, 48, 47, 57, 62, 58, 55, 53, 45, 38, 44, 48, 47, 50, 48, 46, 41, 45, 43, 43, 42, 44, 48, 49, 50, 60, 58, 60, 62, 61, 51, 53, 45, 42, 48, 48, 56, 57, 59, 66},
{35, 37, 33, 33, 32, 33, 34, 35, 35, 40, 40, 37, 37, 36, 32, 32, 32, 32, 32, 32, 35, 36, 35, 37, 35, 31, 33, 34, 31, 35, 39, 36, 35, 35, 32, 32, 34, 36, 37, 41, 37, 38, 37, 37, 33, 39, 39, 40, 41, 42, 40, 43, 42, 42, 40, 43, 39, 41, 38, 38, 35, 34, 33, 36, 35, 31, 32, 30, 29, 28, 28, 29, 29, 33, 33, 33, 31, 34, 31, 33, 35, 36, 34, 33, 35, 41, 41, 45, 48, 47, 41, 43, 40, 36, 35, 34, 35, 34, 39, 64}}

// 2 Reading of the 8 sensors, 100 samples per sensor
{{26, 26, 29, 33, 32, 33, 32, 31, 29, 28, 32, 35, 37, 39, 40, 36, 34, 32, 27, 25, 27, 25, 25, 25, 26, 26, 28, 27, 27, 30, 31, 28, 33, 35, 35, 35, 37, 34, 35, 32, 34, 34, 35, 34, 36, 40, 40, 38, 39, 38, 32, 35, 37, 39, 38, 39, 36, 36, 34, 36, 35, 34, 31, 28, 29, 31, 34, 36, 36, 33, 31, 30, 31, 34, 35, 34, 37, 35, 34, 34, 34, 31, 30, 29, 28, 32, 30, 31, 34, 33, 30, 31, 30, 28, 30, 39, 43, 43, 41, 43},
{56, 57, 53, 51, 52, 64, 65, 67, 70, 75, 76, 81, 87, 99, 103, 96, 96, 89, 73, 65, 68, 60, 58, 56, 82, 80, 87, 87, 86, 61, 65, 60, 66, 72, 80, 76, 85, 90, 89, 84, 91, 95, 103, 113, 115, 123, 113, 97, 87, 90, 82, 94, 99, 100, 105, 111, 104, 107, 103, 95, 84, 85, 78, 75, 78, 77, 83, 97, 102, 95, 89, 87, 75, 76, 82, 88, 85, 81, 74, 75, 73, 65, 67, 65, 62, 70, 71, 78, 81, 88, 80, 89, 85, 96, 86, 98, 99, 101, 90, 92},
{229, 240, 231, 199, 196, 214, 230, 232, 253, 268, 233, 228, 258, 259, 276, 279, 274, 241, 223, 188, 185, 177, 195, 220, 239, 227, 219, 230, 217, 199, 218, 217, 186, 196, 220, 208, 219, 243, 255, 249, 260, 291, 272, 281, 265, 278, 246, 238, 207, 213, 213, 200, 231, 272, 279, 278, 285, 287, 236, 219, 189, 195, 164, 169, 190, 201, 204, 249, 261, 245, 249, 234, 185, 217, 303, 293, 314, 328, 312, 283, 282, 268, 253, 240, 188, 197, 186, 187, 188, 195, 188, 210, 229, 228, 255, 262, 253, 248, 252, 219},
{166, 171, 164, 167, 181, 162, 184, 180, 191, 169, 169, 147, 167, 163, 161, 184, 183, 166, 158, 181, 185, 201, 206, 249, 239, 212, 201, 211, 155, 175, 185, 185, 171, 172, 164, 176, 187, 188, 189, 173, 176, 190, 232, 248, 250, 252, 249, 222, 219, 224, 215, 219, 225, 214, 203, 239, 236, 239, 238, 254, 219, 201, 190, 185, 168, 195, 197, 204, 209, 235, 216, 219, 207, 209, 213, 207, 222, 225, 210, 214, 241, 233, 225, 233, 215, 196, 189, 190, 186, 189, 174, 167, 162, 175, 157, 159, 160, 160, 229, 234},
{131, 132, 130, 150, 154, 141, 142, 153, 146, 136, 138, 138, 146, 157, 160, 178, 180, 169, 156, 166, 163, 167, 165, 172, 163, 142, 148, 158, 141, 168, 174, 168, 153, 154, 125, 140, 158, 177, 185, 190, 192, 179, 203, 224, 230, 241, 245, 233, 211, 213, 192, 203, 186, 189, 167, 181, 183, 199, 196, 196, 181, 151, 113, 126, 154, 167, 177, 208, 204, 208, 199, 197, 170, 168, 162, 153, 152, 151, 143, 160, 188, 182, 188, 189, 176, 151, 161, 159, 168, 191, 193, 184, 182, 181, 144, 134, 134, 142, 177, 183},
{39, 41, 43, 50, 54, 51, 49, 52, 52, 53, 54, 55, 58, 57, 55, 52, 54, 50, 48, 52, 52, 53, 51, 49, 51, 52, 54, 59, 60, 63, 61, 58, 53, 53, 43, 48, 49, 51, 55, 58, 57, 56, 61, 64, 65, 71, 76, 75, 70, 66, 63, 61, 55, 55, 55, 55, 55, 61, 63, 62, 59, 60, 53, 47, 52, 58, 53, 54, 56, 52, 46, 46, 45, 47, 54, 52, 53, 53, 49, 51, 59, 58, 63, 66, 69, 71, 71, 66, 66, 63, 59, 56, 56, 60, 52, 46, 49, 51, 50, 55},
{32, 33, 36, 41, 40, 41, 40, 43, 39, 39, 38, 42, 42, 44, 44, 43, 42, 39, 35, 34, 35, 32, 32, 33, 33, 31, 32, 32, 38, 41, 40, 40, 41, 38, 37, 40, 40, 42, 44, 45, 43, 48, 47, 46, 45, 52, 49, 48, 48, 46, 38, 40, 41, 41, 42, 45, 42, 40, 39, 39, 36, 36, 35, 33, 38, 39, 37, 39, 42, 36, 35, 42, 41, 43, 47, 48, 47, 47, 43, 44, 45, 48, 52, 53, 53, 57, 52, 48, 47, 43, 37, 36, 38, 42, 39, 37, 38, 36, 31, 34},
{28, 27, 30, 31, 32, 31, 30, 29, 26, 24, 26, 26, 30, 32, 32, 30, 32, 32, 32, 35, 34, 32, 29, 27, 24, 24, 26, 24, 28, 30, 30, 27, 32, 27, 29, 29, 30, 30, 32, 30, 30, 30, 31, 30, 32, 34, 35, 32, 31, 29, 26, 25, 27, 29, 30, 32, 31, 34, 35, 37, 35, 34, 29, 26, 26, 25, 27, 29, 31, 29, 30, 31, 30, 30, 31, 31, 31, 32, 32, 32, 32, 32, 33, 32, 34, 36, 33, 31, 31, 28, 25, 27, 27, 29, 29, 27, 29, 27, 23, 27}}

// 3 Reading of the 8 sensors, 100 samples per sensor
{{23, 22, 21, 20, 19, 18, 19, 20, 24, 24, 26, 31, 33, 34, 36, 38, 36, 35, 34, 34, 33, 33, 33, 33, 31, 39, 42, 42, 44, 46, 43, 42, 40, 38, 37, 35, 30, 30, 29, 26, 22, 23, 25, 29, 32, 32, 33, 36, 34, 32, 32, 31, 27, 27, 27, 27, 29, 30, 28, 27, 28, 29, 30, 29, 39, 42, 40, 40, 42, 32, 27, 27, 25, 28, 31, 32, 32, 32, 34, 35, 35, 36, 35, 32, 36, 39, 40, 40, 40, 33, 31, 32, 31, 27, 28, 29, 29, 30, 32, 31},
{35, 31, 33, 34, 35, 35, 37, 36, 41, 41, 45, 46, 55, 62, 68, 84, 89, 85, 79, 106, 101, 101, 106, 109, 85, 84, 85, 80, 80, 87, 86, 88, 84, 81, 64, 56, 47, 51, 56, 61, 62, 58, 65, 65, 82, 83, 82, 86, 91, 74, 90, 94, 90, 84, 88, 79, 85, 82, 82, 83, 76, 73, 70, 68, 96, 100, 93, 96, 100, 78, 69, 71, 69, 68, 66, 69, 83, 85, 85, 80, 103, 93, 93, 99, 104, 89, 92, 89, 91, 86, 82, 80, 84, 79, 79, 75, 85, 85, 85, 82},
{138, 137, 143, 151, 164, 163, 169, 163, 159, 139, 150, 140, 149, 192, 206, 250, 254, 277, 258, 313, 284, 286, 276, 265, 188, 194, 206, 204, 219, 219, 213, 228, 242, 236, 232, 223, 196, 170, 172, 186, 188, 173, 180, 190, 213, 229, 236, 232, 259, 230, 221, 230, 219, 180, 213, 211, 218, 223, 213, 192, 186, 184, 180, 183, 265, 261, 247, 269, 278, 229, 229, 234, 202, 241, 215, 216, 221, 235, 181, 178, 194, 177, 216, 222, 213, 242, 245, 211, 205, 254, 223, 242, 256, 273, 233, 247, 269, 276, 260, 276},
{76, 69, 59, 64, 68, 78, 91, 95, 93, 87, 106, 142, 171, 186, 202, 194, 202, 190, 179, 184, 194, 175, 189, 213, 207, 220, 214, 220, 199, 189, 158, 170, 153, 155, 160, 184, 170, 166, 189, 186, 174, 174, 173, 145, 162, 156, 146, 136, 144, 131, 145, 159, 182, 184, 178, 180, 174, 154, 139, 151, 157, 165, 189, 194, 191, 177, 181, 171, 173, 182, 175, 157, 139, 175, 169, 163, 164, 191, 159, 164, 169, 175, 160, 160, 145, 236, 238, 227, 235, 238, 151, 178, 184, 191, 213, 213, 194, 195, 171, 141},
{78, 69, 68, 65, 58, 54, 55, 51, 54, 56, 92, 149, 198, 228, 240, 234, 233, 203, 173, 161, 174, 157, 175, 199, 206, 195, 187, 165, 135, 124, 115, 125, 127, 136, 147, 157, 134, 142, 159, 153, 145, 150, 135, 109, 100, 122, 115, 117, 137, 149, 147, 161, 182, 177, 169, 161, 152, 139, 135, 135, 156, 164, 183, 190, 190, 172, 170, 159, 146, 142, 132, 128, 103, 149, 166, 169, 164, 190, 164, 162, 164, 169, 157, 149, 136, 229, 239, 227, 238, 241, 165, 181, 188, 176, 188, 186, 167, 178, 180, 166},
{30, 27, 27, 26, 24, 27, 27, 27, 27, 28, 36, 47, 62, 66, 67, 66, 70, 59, 59, 60, 64, 59, 65, 67, 71, 73, 74, 69, 65, 62, 52, 50, 49, 52, 54, 60, 54, 53, 53, 48, 39, 42, 41, 37, 37, 47, 45, 47, 48, 48, 42, 46, 52, 51, 51, 53, 50, 45, 45, 48, 47, 54, 58, 60, 61, 63, 59, 55, 50, 48, 43, 41, 38, 56, 60, 62, 60, 63, 54, 49, 49, 52, 58, 53, 53, 68, 70, 63, 65, 66, 52, 57, 59, 55, 53, 57, 52, 50, 54, 53},
{29, 27, 25, 22, 21, 23, 21, 21, 22, 22, 22, 36, 43, 44, 44, 44, 41, 36, 38, 42, 49, 46, 48, 49, 50, 46, 51, 50, 50, 49, 47, 43, 43, 41, 42, 50, 47, 47, 47, 42, 33, 32, 30, 31, 35, 42, 42, 44, 42, 39, 33, 32, 32, 34, 38, 37, 37, 38, 44, 54, 63, 72, 74, 82, 78, 74, 71, 71, 72, 71, 79, 75, 78, 70, 80, 83, 82, 81, 80, 110, 107, 108, 107, 110, 72, 67, 71, 71, 67, 61, 59, 54, 55, 50, 47, 49, 49, 53, 53, 53},
{21, 21, 20, 19, 20, 18, 19, 19, 20, 18, 20, 24, 26, 25, 27, 27, 26, 26, 30, 31, 34, 32, 31, 31, 32, 30, 37, 38, 38, 39, 38, 33, 33, 33, 33, 35, 33, 34, 34, 29, 27, 30, 27, 26, 27, 29, 29, 30, 30, 28, 26, 22, 23, 24, 25, 25, 27, 28, 28, 29, 31, 31, 28, 31, 32, 35, 35, 35, 34, 33, 29, 27, 28, 33, 37, 37, 38, 39, 34, 29, 29, 30, 30, 34, 52, 61, 60, 60, 59, 44, 32, 36, 34, 32, 31, 30, 24, 27, 27, 26}}

// 4 Reading of the 8 sensors, 100 samples per sensor
{{33, 35, 35, 35, 35, 34, 30, 30, 29, 27, 30, 31, 31, 31, 33, 43, 44, 46, 47, 48, 42, 42, 43, 43, 44, 42, 45, 45, 44, 44, 42, 39, 36, 36, 32, 31, 34, 37, 40, 40, 40, 38, 36, 34, 32, 35, 31, 33, 35, 37, 36, 39, 35, 34, 35, 35, 35, 35, 32, 33, 35, 35, 37, 41, 42, 39, 38, 38, 35, 35, 35, 35, 34, 34, 32, 31, 31, 29, 31, 32, 30, 30, 33, 32, 32, 34, 32, 32, 35, 32, 35, 36, 33, 32, 33, 33, 36, 39, 40, 41},
{82, 80, 82, 78, 67, 61, 61, 54, 52, 50, 56, 69, 69, 94, 102, 189, 207, 210, 206, 203, 129, 106, 102, 88, 104, 101, 113, 130, 135, 142, 143, 125, 106, 104, 71, 74, 94, 100, 101, 110, 107, 100, 113, 114, 107, 114, 103, 84, 81, 83, 76, 82, 87, 88, 84, 82, 78, 72, 64, 69, 71, 68, 70, 79, 89, 86, 85, 88, 81, 72, 71, 70, 70, 69, 68, 77, 81, 74, 78, 82, 71, 71, 78, 75, 66, 68, 62, 66, 67, 73, 79, 80, 67, 66, 74, 70, 71, 73, 75, 63},
{205, 209, 229, 264, 294, 286, 289, 287, 264, 216, 227, 251, 250, 244, 255, 344, 363, 372, 415, 428, 375, 339, 318, 256, 251, 216, 216, 246, 243, 247, 244, 245, 252, 260, 223, 227, 239, 240, 241, 254, 271, 262, 287, 297, 284, 276, 271, 223, 193, 192, 190, 217, 228, 236, 248, 277, 252, 230, 218, 209, 171, 178, 185, 185, 204, 201, 214, 218, 222, 214, 217, 196, 244, 244, 247, 248, 261, 208, 212, 251, 249, 250, 282, 284, 243, 238, 221, 210, 208, 203, 225, 251, 219, 231, 234, 221, 199, 200, 194, 187},
{173, 237, 245, 263, 267, 262, 199, 211, 197, 179, 188, 241, 254, 263, 287, 320, 300, 300, 305, 291, 275, 270, 243, 231, 209, 186, 193, 197, 209, 217, 238, 235, 231, 247, 253, 219, 221, 247, 221, 221, 232, 233, 224, 220, 206, 211, 213, 214, 214, 221, 241, 225, 198, 192, 198, 173, 169, 188, 205, 197, 208, 208, 206, 210, 203, 173, 186, 168, 158, 163, 187, 172, 233, 230, 236, 225, 244, 218, 213, 217, 216, 195, 162, 161, 149, 140, 163, 165, 172, 170, 172, 158, 156, 160, 159, 165, 149, 153, 173, 175},
{175, 179, 187, 186, 159, 174, 150, 172, 174, 193, 184, 200, 183, 194, 222, 282, 302, 306, 305, 280, 234, 226, 226, 225, 226, 204, 192, 183, 204, 206, 221, 209, 204, 177, 178, 155, 167, 171, 186, 186, 209, 209, 213, 197, 186, 167, 151, 148, 156, 158, 185, 181, 175, 164, 164, 163, 170, 170, 198, 201, 193, 187, 185, 168, 156, 126, 129, 124, 121, 126, 141, 140, 187, 187, 196, 193, 189, 150, 155, 143, 130, 138, 134, 117, 109, 106, 141, 135, 135, 145, 154, 127, 130, 141, 147, 144, 133, 133, 144, 130},
{58, 60, 59, 59, 49, 49, 42, 55, 58, 67, 72, 79, 72, 71, 71, 91, 97, 99, 100, 98, 79, 70, 65, 65, 64, 66, 75, 78, 81, 84, 79, 68, 65, 62, 56, 55, 56, 54, 53, 54, 54, 62, 63, 59, 57, 60, 49, 47, 47, 49, 50, 50, 52, 51, 52, 61, 62, 60, 63, 62, 49, 52, 56, 56, 56, 52, 47, 49, 44, 43, 47, 48, 50, 54, 55, 58, 57, 52, 51, 52, 46, 46, 47, 43, 39, 39, 46, 44, 48, 52, 54, 51, 54, 57, 54, 56, 56, 59, 54, 55},
{32, 34, 33, 32, 29, 30, 30, 34, 37, 38, 39, 40, 39, 42, 46, 68, 74, 76, 74, 73, 53, 44, 43, 43, 43, 48, 52, 57, 57, 62, 56, 52, 49, 54, 49, 49, 53, 49, 45, 42, 41, 42, 43, 41, 42, 46, 40, 46, 44, 44, 48, 47, 43, 44, 46, 46, 48, 45, 49, 47, 45, 50, 54, 51, 52, 47, 43, 38, 38, 40, 43, 41, 41, 42, 39, 38, 39, 39, 41, 40, 43, 44, 43, 40, 41, 42, 44, 46, 51, 50, 45, 41, 43, 40, 40, 43, 44, 44, 43, 47},
{27, 29, 29, 29, 30, 30, 28, 30, 30, 30, 29, 29, 28, 27, 34, 46, 48, 50, 50, 49, 40, 37, 37, 38, 34, 34, 34, 33, 32, 37, 34, 35, 34, 37, 33, 34, 35, 36, 34, 32, 33, 37, 35, 34, 35, 35, 28, 33, 34, 34, 37, 37, 35, 33, 33, 31, 35, 32, 34, 33, 33, 32, 33, 33, 36, 33, 31, 30, 28, 27, 30, 31, 31, 33, 33, 32, 31, 31, 30, 29, 30, 30, 30, 27, 30, 31, 33, 33, 35, 33, 30, 28, 30, 29, 30, 34, 36, 37, 36, 39}}

// 5 Reading of the 8 sensors, 100 samples per sensor
{{42, 41, 43, 42, 42, 40, 39, 37, 36, 41, 44, 44, 43, 41, 37, 35, 34, 36, 37, 40, 42, 43, 44, 47, 44, 40, 39, 36, 33, 41, 42, 41, 42, 41, 33, 33, 36, 33, 36, 40, 41, 40, 44, 44, 45, 49, 51, 50, 52, 51, 47, 47, 47, 53, 62, 61, 62, 61, 51, 42, 45, 42, 45, 60, 61, 61, 64, 63, 51, 49, 50, 48, 48, 51, 47, 46, 48, 52, 50, 55, 53, 50, 49, 48, 44, 44, 45, 40, 39, 38, 49, 62, 63, 65, 68, 64, 53, 54, 51, 52},
{119, 116, 117, 104, 111, 116, 121, 128, 113, 110, 101, 109, 102, 103, 103, 115, 120, 138, 167, 170, 176, 174, 166, 149, 148, 137, 138, 142, 126, 132, 145, 156, 146, 151, 142, 124, 107, 116, 126, 153, 151, 148, 142, 137, 108, 106, 114, 112, 112, 126, 128, 117, 116, 108, 124, 124, 124, 117, 122, 84, 90, 106, 116, 115, 111, 109, 111, 131, 131, 147, 151, 142, 172, 171, 168, 171, 180, 137, 144, 163, 156, 153, 154, 156, 131, 131, 120, 119, 109, 111, 128, 146, 140, 145, 158, 162, 155, 157, 151, 133},
{226, 237, 219, 218, 207, 208, 202, 220, 235, 255, 260, 259, 238, 205, 186, 208, 207, 243, 271, 285, 292, 289, 295, 282, 285, 258, 255, 239, 247, 235, 247, 284, 281, 278, 292, 283, 275, 296, 311, 300, 303, 269, 258, 247, 239, 224, 239, 219, 210, 212, 258, 252, 269, 272, 283, 257, 271, 270, 284, 318, 325, 333, 325, 314, 257, 252, 226, 251, 252, 275, 273, 292, 305, 300, 310, 325, 325, 377, 396, 417, 409, 390, 307, 299, 293, 313, 352, 354, 349, 310, 347, 363, 380, 372, 390, 335, 295, 332, 374, 363},
{215, 217, 225, 214, 204, 197, 202, 181, 175, 195, 203, 202, 218, 218, 205, 207, 211, 210, 243, 295, 300, 288, 284, 304, 259, 239, 245, 249, 188, 197, 197, 229, 222, 240, 230, 266, 238, 245, 247, 248, 254, 263, 264, 262, 290, 257, 259, 270, 272, 237, 246, 235, 207, 195, 201, 195, 201, 200, 203, 227, 219, 230, 236, 223, 199, 202, 187, 193, 205, 224, 219, 208, 208, 201, 167, 175, 230, 257, 264, 272, 286, 245, 248, 240, 237, 207, 285, 253, 251, 247, 264, 223, 231, 273, 279, 280, 252, 259, 230, 226},
{191, 196, 196, 177, 164, 167, 163, 159, 163, 189, 181, 166, 199, 207, 185, 193, 203, 159, 175, 186, 174, 165, 165, 188, 184, 185, 180, 195, 141, 133, 131, 156, 146, 150, 145, 167, 151, 148, 147, 170, 173, 187, 215, 227, 233, 228, 211, 176, 178, 154, 135, 139, 141, 130, 131, 146, 149, 147, 130, 122, 109, 107, 107, 121, 139, 136, 133, 141, 141, 136, 142, 152, 179, 176, 171, 171, 182, 162, 162, 159, 185, 171, 169, 176, 187, 152, 160, 155, 142, 134, 152, 143, 144, 173, 164, 148, 142, 142, 112, 119},
{60, 56, 63, 59, 54, 60, 64, 65, 67, 73, 72, 67, 68, 66, 64, 64, 67, 62, 64, 60, 57, 54, 52, 78, 80, 88, 95, 99, 80, 86, 81, 74, 68, 69, 58, 53, 51, 50, 49, 56, 52, 54, 61, 66, 67, 66, 70, 64, 58, 57, 61, 54, 55, 62, 58, 61, 69, 69, 63, 61, 62, 57, 61, 68, 69, 65, 64, 65, 62, 69, 71, 79, 84, 82, 76, 81, 77, 73, 74, 72, 75, 73, 65, 71, 74, 63, 65, 65, 57, 56, 55, 55, 57, 63, 60, 59, 63, 63, 59, 57},
{56, 55, 55, 53, 48, 55, 57, 53, 52, 57, 52, 53, 58, 58, 60, 56, 54, 62, 83, 86, 92, 95, 88, 87, 87, 92, 95, 95, 82, 84, 76, 68, 65, 69, 61, 53, 52, 58, 55, 54, 54, 61, 58, 58, 64, 66, 76, 81, 76, 78, 82, 72, 105, 174, 183, 184, 188, 177, 113, 99, 99, 89, 72, 91, 100, 95, 98, 108, 122, 113, 120, 130, 140, 173, 186, 189, 188, 178, 126, 116, 115, 112, 111, 114, 104, 91, 83, 78, 85, 91, 93, 104, 105, 94, 99, 105, 107, 106, 107, 104},
{40, 41, 37, 35, 33, 32, 29, 29, 28, 31, 33, 34, 32, 33, 34, 32, 30, 67, 116, 124, 125, 127, 114, 69, 56, 53, 51, 46, 37, 38, 37, 35, 33, 32, 26, 26, 27, 27, 29, 29, 30, 29, 32, 34, 37, 39, 40, 39, 37, 36, 38, 104, 146, 189, 213, 213, 190, 163, 113, 77, 103, 118, 117, 163, 213, 223, 220, 221, 219, 186, 170, 179, 182, 215, 212, 228, 227, 237, 187, 205, 197, 192, 179, 206, 174, 154, 154, 156, 128, 128, 129, 143, 144, 137, 148, 150, 150, 146, 137, 190}}

// 6 Reading of the 8 sensors, 100 samples per sensor
{{38, 34, 34, 35, 34, 29, 32, 35, 34, 33, 33, 34, 40, 42, 43, 42, 44, 38, 38, 39, 41, 39, 38, 38, 37, 39, 36, 39, 38, 39, 37, 39, 36, 38, 37, 36, 35, 42, 42, 42, 40, 47, 43, 41, 43, 45, 44, 44, 44, 46, 47, 50, 50, 50, 47, 48, 39, 39, 38, 36, 32, 33, 37, 40, 48, 53, 59, 61, 66, 61, 60, 53, 52, 45, 45, 44, 50, 46, 48, 49, 49, 47, 48, 46, 43, 45, 39, 42, 44, 47, 43, 50, 49, 45, 46, 44, 36, 34, 37, 38},
{72, 76, 73, 78, 77, 72, 69, 74, 77, 76, 68, 74, 92, 90, 95, 91, 92, 77, 81, 72, 71, 72, 69, 67, 72, 79, 85, 84, 80, 78, 79, 70, 75, 80, 87, 88, 87, 92, 97, 95, 95, 99, 99, 96, 100, 96, 95, 94, 91, 94, 98, 103, 101, 103, 102, 102, 93, 88, 86, 78, 74, 80, 88, 97, 101, 103, 101, 110, 115, 115, 113, 109, 117, 109, 108, 111, 120, 101, 99, 101, 100, 91, 101, 95, 88, 82, 88, 92, 121, 125, 126, 140, 133, 122, 124, 126, 105, 99, 81, 75},
{218, 226, 224, 232, 208, 207, 193, 218, 238, 250, 220, 222, 240, 221, 222, 232, 261, 226, 249, 229, 241, 235, 235, 209, 229, 233, 240, 255, 257, 257, 239, 211, 198, 224, 207, 197, 215, 230, 236, 262, 289, 275, 269, 236, 249, 220, 252, 268, 270, 274, 290, 293, 281, 275, 253, 240, 234, 231, 258, 308, 330, 324, 313, 312, 266, 253, 231, 242, 260, 273, 283, 287, 333, 329, 342, 335, 367, 374, 356, 325, 320, 294, 253, 272, 282, 288, 302, 330, 381, 379, 371, 444, 416, 375, 386, 378, 255, 237, 200, 200},
{157, 190, 199, 206, 217, 236, 234, 263, 269, 283, 264, 262, 271, 253, 250, 273, 268, 258, 263, 249, 243, 266, 258, 266, 263, 267, 230, 220, 222, 240, 226, 241, 243, 226, 211, 210, 210, 252, 251, 282, 289, 280, 244, 271, 247, 240, 247, 251, 236, 249, 269, 292, 300, 283, 277, 265, 251, 231, 258, 306, 295, 295, 283, 281, 224, 252, 236, 257, 238, 241, 275, 282, 279, 273, 264, 207, 242, 261, 278, 273, 265, 219, 203, 189, 216, 213, 224, 269, 299, 285, 316, 348, 322, 298, 310, 299, 256, 240, 238, 279},
{177, 204, 205, 213, 236, 261, 269, 290, 276, 295, 270, 251, 259, 283, 247, 247, 241, 223, 197, 207, 221, 249, 241, 227, 212, 211, 185, 183, 177, 184, 166, 157, 163, 167, 156, 167, 165, 169, 170, 187, 175, 178, 169, 188, 188, 197, 199, 207, 199, 197, 194, 202, 204, 183, 169, 171, 196, 186, 209, 238, 229, 213, 211, 198, 179, 207, 190, 192, 194, 181, 188, 198, 194, 191, 194, 173, 180, 192, 202, 214, 195, 176, 157, 147, 128, 133, 154, 165, 164, 156, 174, 166, 167, 153, 170, 180, 171, 159, 166, 177},
{60, 64, 65, 69, 73, 78, 82, 87, 79, 83, 77, 77, 91, 96, 92, 92, 88, 70, 58, 62, 70, 75, 74, 76, 81, 76, 68, 69, 65, 50, 47, 51, 53, 53, 58, 60, 60, 62, 63, 67, 70, 67, 64, 70, 72, 66, 70, 68, 64, 58, 59, 62, 61, 59, 56, 60, 54, 60, 73, 75, 72, 74, 69, 65, 67, 73, 75, 78, 84, 78, 80, 80, 77, 62, 67, 64, 59, 61, 63, 59, 56, 65, 67, 75, 77, 77, 75, 78, 77, 74, 75, 68, 63, 51, 53, 57, 57, 55, 64, 65},
{39, 41, 43, 44, 41, 39, 37, 39, 40, 39, 41, 45, 52, 53, 56, 55, 55, 48, 46, 48, 52, 51, 49, 53, 61, 59, 55, 55, 54, 43, 45, 51, 51, 48, 54, 55, 65, 68, 68, 66, 67, 55, 53, 53, 52, 48, 50, 49, 52, 46, 46, 50, 50, 50, 54, 63, 59, 63, 76, 75, 73, 72, 68, 67, 78, 82, 108, 116, 116, 114, 108, 86, 80, 71, 63, 65, 63, 59, 51, 51, 47, 60, 71, 82, 86, 87, 76, 66, 74, 75, 83, 84, 85, 67, 58, 48, 47, 46, 53, 60},
{29, 28, 29, 27, 26, 24, 24, 29, 29, 30, 33, 36, 37, 38, 41, 39, 37, 33, 32, 30, 33, 36, 36, 37, 37, 35, 30, 29, 29, 29, 30, 31, 30, 31, 32, 31, 34, 36, 35, 37, 37, 35, 35, 35, 35, 35, 38, 38, 37, 35, 36, 40, 39, 42, 42, 42, 33, 35, 31, 30, 29, 31, 30, 32, 91, 127, 161, 170, 175, 154, 128, 83, 63, 51, 50, 48, 48, 48, 44, 42, 42, 48, 47, 49, 47, 46, 35, 37, 44, 44, 44, 46, 45, 37, 35, 32, 32, 35, 37, 40}}

// 7 Reading of the 8 sensors, 100 samples per sensor
{{38, 39, 39, 38, 44, 44, 43, 43, 45, 37, 37, 37, 38, 37, 41, 41, 42, 43, 42, 39, 41, 47, 48, 45, 45, 44, 40, 38, 39, 39, 40, 45, 46, 44, 42, 44, 43, 43, 45, 46, 44, 41, 44, 46, 50, 51, 48, 47, 46, 44, 45, 46, 49, 53, 51, 53, 53, 49, 47, 50, 46, 47, 49, 47, 46, 47, 45, 40, 38, 37, 38, 38, 40, 41, 39, 36, 38, 35, 34, 37, 43, 41, 43, 46, 43, 36, 41, 38, 42, 43, 46, 41, 45, 43, 44, 41, 40, 37, 33, 32},
{127, 130, 137, 126, 112, 107, 102, 103, 106, 108, 105, 104, 87, 99, 109, 108, 109, 127, 117, 110, 120, 121, 104, 108, 112, 114, 133, 139, 133, 130, 130, 113, 108, 114, 121, 114, 115, 115, 107, 112, 115, 114, 120, 120, 113, 119, 126, 117, 117, 111, 96, 85, 106, 110, 109, 115, 125, 109, 111, 122, 120, 108, 138, 140, 132, 142, 142, 111, 105, 110, 106, 108, 106, 110, 104, 88, 92, 95, 94, 105, 116, 114, 118, 112, 99, 93, 91, 87, 92, 106, 109, 111, 119, 146, 148, 142, 140, 128, 99, 91},
{294, 298, 312, 275, 274, 247, 223, 204, 218, 222, 234, 237, 273, 302, 290, 289, 291, 277, 229, 256, 278, 277, 264, 283, 257, 216, 243, 240, 236, 256, 298, 278, 269, 255, 243, 219, 228, 234, 245, 239, 221, 240, 235, 254, 268, 287, 290, 304, 287, 273, 255, 264, 320, 320, 322, 324, 300, 244, 253, 298, 291, 288, 292, 282, 265, 262, 258, 253, 271, 245, 250, 246, 222, 203, 206, 198, 229, 231, 217, 226, 228, 251, 244, 251, 237, 236, 214, 225, 225, 239, 247, 234, 247, 273, 267, 254, 240, 226, 185, 183},
{277, 273, 258, 249, 247, 228, 208, 235, 276, 297, 343, 361, 356, 345, 321, 284, 255, 274, 243, 259, 251, 253, 239, 261, 251, 291, 346, 340, 334, 356, 384, 353, 356, 352, 363, 286, 265, 270, 283, 238, 263, 264, 265, 291, 339, 339, 336, 316, 301, 249, 257, 298, 329, 307, 316, 302, 295, 312, 329, 358, 373, 369, 360, 375, 344, 340, 322, 296, 308, 299, 288, 302, 300, 282, 278, 289, 282, 305, 282, 287, 262, 331, 321, 338, 353, 361, 321, 319, 308, 291, 305, 274, 271, 291, 310, 279, 273, 267, 225, 226},
{303, 312, 295, 270, 250, 238, 207, 189, 206, 216, 180, 220, 225, 209, 207, 228, 232, 282, 280, 286, 289, 278, 248, 255, 261, 260, 254, 235, 229, 220, 225, 210, 193, 199, 204, 188, 197, 204, 192, 180, 159, 139, 147, 163, 176, 200, 221, 221, 228, 216, 205, 201, 209, 189, 183, 224, 217, 203, 202, 217, 207, 206, 213, 225, 215, 176, 178, 164, 178, 172, 217, 239, 246, 231, 241, 212, 225, 226, 222, 224, 220, 229, 230, 253, 251, 251, 209, 213, 185, 176, 162, 162, 172, 166, 159, 164, 151, 111, 109, 116},
{71, 75, 68, 66, 68, 73, 64, 66, 66, 64, 60, 66, 66, 71, 73, 76, 82, 94, 91, 88, 83, 82, 68, 70, 73, 77, 77, 77, 76, 81, 81, 81, 80, 79, 70, 69, 64, 68, 67, 67, 61, 55, 60, 61, 71, 84, 91, 86, 88, 79, 68, 69, 67, 67, 66, 84, 78, 75, 77, 89, 82, 78, 84, 83, 74, 67, 68, 62, 60, 65, 81, 89, 88, 88, 87, 72, 84, 84, 81, 77, 75, 61, 66, 78, 83, 86, 84, 85, 78, 76, 72, 67, 65, 60, 58, 62, 61, 62, 61, 63},
{40, 44, 38, 39, 48, 52, 49, 50, 50, 43, 42, 42, 47, 49, 50, 52, 55, 54, 51, 49, 47, 54, 52, 54, 56, 59, 59, 63, 63, 66, 62, 62, 56, 55, 49, 50, 46, 56, 60, 62, 59, 55, 52, 46, 55, 62, 64, 63, 67, 60, 58, 66, 65, 66, 66, 69, 65, 62, 62, 65, 68, 65, 69, 64, 61, 54, 50, 50, 49, 50, 60, 69, 66, 68, 69, 59, 52, 53, 49, 50, 49, 50, 50, 53, 56, 53, 57, 55, 63, 60, 63, 56, 60, 47, 50, 67, 69, 68, 67, 64},
{32, 37, 35, 35, 39, 38, 34, 34, 35, 32, 32, 32, 34, 34, 33, 34, 37, 37, 35, 35, 37, 41, 40, 39, 40, 39, 41, 44, 45, 44, 41, 38, 34, 35, 34, 38, 35, 37, 38, 40, 38, 36, 39, 38, 42, 44, 46, 44, 44, 43, 45, 48, 46, 49, 48, 48, 43, 43, 41, 40, 37, 38, 41, 39, 39, 40, 40, 39, 40, 38, 39, 43, 42, 40, 40, 36, 30, 31, 29, 29, 29, 28, 28, 31, 31, 30, 35, 35, 40, 41, 43, 39, 41, 37, 40, 40, 41, 37, 36, 30}}

// 8 Reading of the 8 sensors, 100 samples per sensor
{{28, 30, 33, 34, 37, 34, 32, 31, 33, 32, 34, 36, 34, 31, 32, 29, 27, 30, 27, 28, 29, 32, 33, 35, 34, 34, 31, 32, 31, 31, 31, 34, 31, 31, 31, 34, 32, 32, 32, 32, 29, 32, 31, 36, 37, 46, 44, 45, 43, 42, 32, 32, 32, 29, 35, 39, 39, 39, 40, 37, 33, 31, 32, 34, 32, 36, 40, 40, 36, 37, 36, 32, 32, 36, 36, 31, 30, 29, 29, 31, 33, 35, 37, 35, 32, 33, 31, 29, 27, 27, 25, 27, 26, 29, 30, 30, 33, 38, 37, 37},
{66, 73, 76, 79, 85, 79, 69, 66, 69, 73, 85, 83, 78, 78, 68, 52, 61, 64, 61, 65, 73, 71, 84, 90, 92, 89, 85, 73, 61, 53, 53, 51, 51, 55, 64, 80, 82, 82, 101, 113, 99, 108, 108, 96, 83, 101, 92, 91, 89, 88, 66, 67, 78, 76, 77, 93, 96, 93, 94, 103, 88, 90, 88, 86, 68, 73, 75, 74, 71, 71, 68, 60, 66, 88, 95, 94, 95, 87, 74, 66, 66, 61, 60, 56, 60, 65, 66, 75, 74, 70, 67, 75, 76, 84, 83, 79, 80, 75, 72, 74},
{223, 251, 259, 260, 281, 243, 215, 205, 224, 201, 206, 201, 222, 210, 205, 213, 254, 234, 240, 251, 247, 201, 264, 289, 284, 292, 304, 258, 243, 273, 267, 257, 250, 252, 228, 248, 260, 264, 250, 233, 258, 294, 294, 310, 330, 352, 314, 314, 298, 285, 209, 204, 196, 176, 192, 185, 191, 210, 207, 180, 189, 213, 225, 237, 242, 234, 228, 236, 236, 226, 231, 218, 203, 224, 241, 261, 270, 248, 223, 212, 184, 170, 190, 187, 188, 204, 192, 173, 210, 208, 189, 217, 254, 291, 292, 288, 274, 258, 181, 186},
{317, 302, 312, 307, 292, 210, 203, 187, 248, 248, 289, 314, 319, 282, 298, 254, 239, 264, 243, 242, 251, 228, 268, 276, 266, 258, 276, 256, 255, 243, 265, 266, 217, 222, 240, 247, 244, 264, 275, 291, 305, 319, 314, 298, 281, 272, 238, 234, 220, 217, 177, 181, 184, 193, 190, 242, 246, 254, 275, 284, 281, 279, 275, 257, 242, 205, 209, 229, 241, 234, 225, 223, 187, 171, 168, 198, 197, 195, 189, 211, 220, 220, 220, 226, 262, 244, 237, 259, 260, 214, 206, 209, 175, 198, 186, 176, 176, 179, 137, 151},
{252, 255, 268, 269, 283, 227, 232, 226, 229, 191, 220, 206, 215, 218, 243, 215, 207, 225, 204, 209, 219, 216, 223, 234, 210, 200, 213, 205, 190, 193, 196, 190, 155, 164, 168, 179, 170, 196, 191, 210, 210, 226, 209, 213, 186, 186, 181, 180, 173, 183, 175, 157, 155, 162, 146, 198, 199, 230, 246, 251, 244, 251, 228, 208, 216, 177, 177, 191, 189, 173, 176, 173, 133, 128, 121, 124, 111, 138, 141, 162, 193, 203, 189, 212, 232, 204, 197, 222, 215, 181, 179, 189, 171, 148, 146, 151, 136, 131, 133, 133},
{70, 67, 78, 81, 84, 70, 72, 63, 68, 60, 64, 69, 70, 64, 78, 79, 74, 77, 77, 69, 63, 63, 64, 64, 58, 61, 61, 65, 63, 68, 65, 66, 56, 54, 46, 52, 50, 51, 54, 60, 57, 62, 62, 63, 58, 57, 56, 53, 54, 56, 57, 56, 57, 57, 61, 71, 68, 74, 75, 71, 65, 65, 56, 52, 57, 52, 57, 67, 67, 62, 62, 62, 51, 49, 48, 51, 45, 48, 51, 57, 61, 65, 64, 66, 63, 61, 57, 55, 54, 53, 50, 55, 56, 50, 53, 53, 54, 55, 57, 54},
{39, 39, 42, 42, 43, 40, 42, 43, 46, 44, 44, 47, 45, 40, 46, 45, 46, 50, 51, 51, 50, 45, 43, 43, 38, 39, 37, 38, 40, 46, 45, 49, 47, 44, 37, 35, 31, 30, 39, 42, 43, 46, 49, 45, 42, 44, 42, 37, 37, 39, 40, 41, 44, 47, 51, 51, 51, 50, 47, 45, 41, 41, 39, 40, 37, 37, 45, 47, 48, 50, 50, 45, 48, 44, 42, 45, 43, 38, 41, 49, 52, 53, 55, 58, 55, 51, 48, 44, 38, 35, 37, 39, 45, 47, 49, 48, 50, 50, 54, 55},
{28, 28, 30, 29, 33, 32, 34, 35, 35, 33, 34, 33, 29, 29, 30, 28, 28, 31, 29, 29, 28, 28, 28, 29, 29, 31, 29, 29, 28, 28, 27, 30, 28, 28, 28, 27, 26, 29, 32, 32, 34, 32, 33, 35, 34, 34, 35, 34, 31, 30, 33, 33, 36, 36, 37, 35, 38, 36, 34, 35, 31, 28, 27, 27, 25, 27, 31, 31, 30, 33, 33, 32, 35, 35, 32, 32, 28, 24, 25, 29, 30, 31, 33, 33, 32, 32, 31, 29, 29, 30, 32, 33, 35, 34, 33, 30, 31, 30, 29, 28}}

// 9 Reading of the 8 sensors, 100 samples per sensor
{{37, 35, 36, 39, 38, 39, 39, 38, 37, 40, 40, 39, 48, 51, 48, 49, 51, 45, 38, 42, 42, 40, 38, 46, 42, 48, 51, 56, 53, 56, 52, 50, 47, 44, 46, 49, 51, 52, 55, 52, 46, 41, 41, 42, 50, 51, 54, 55, 51, 43, 41, 40, 41, 45, 46, 52, 55, 47, 47, 45, 41, 39, 41, 37, 38, 39, 38, 37, 36, 38, 38, 37, 37, 38, 43, 40, 42, 44, 45, 39, 41, 38, 36, 39, 34, 34, 36, 34, 29, 32, 35, 37, 40, 42, 45, 40, 38, 36, 33, 32},
{69, 70, 68, 69, 63, 60, 72, 80, 82, 91, 103, 100, 106, 114, 105, 94, 96, 92, 78, 76, 81, 76, 74, 79, 82, 102, 102, 100, 100, 113, 98, 99, 100, 104, 94, 91, 92, 85, 79, 81, 88, 89, 101, 110, 112, 112, 126, 129, 121, 115, 108, 91, 77, 82, 81, 80, 72, 64, 68, 66, 65, 74, 81, 69, 74, 89, 86, 79, 84, 97, 107, 111, 113, 113, 107, 83, 88, 91, 101, 103, 104, 95, 94, 94, 82, 101, 110, 106, 96, 104, 94, 82, 85, 85, 81, 70, 69, 72, 70, 70},
{400, 405, 413, 384, 275, 251, 223, 216, 218, 201, 208, 235, 265, 278, 277, 276, 259, 236, 217, 211, 233, 241, 245, 238, 289, 420, 439, 440, 445, 454, 382, 365, 394, 435, 436, 400, 401, 388, 355, 322, 322, 342, 340, 365, 380, 387, 408, 395, 367, 340, 325, 318, 318, 316, 318, 363, 311, 316, 309, 315, 270, 308, 322, 327, 321, 301, 276, 240, 266, 261, 281, 280, 292, 293, 300, 294, 299, 288, 256, 284, 271, 271, 268, 278, 224, 293, 283, 286, 282, 317, 284, 270, 284, 273, 236, 207, 204, 166, 207, 216},
{364, 264, 328, 335, 347, 327, 338, 285, 269, 228, 274, 259, 276, 300, 307, 269, 295, 287, 270, 274, 273, 272, 275, 275, 284, 299, 319, 336, 334, 322, 315, 288, 273, 275, 266, 261, 295, 343, 329, 355, 385, 360, 326, 345, 333, 335, 332, 310, 306, 297, 241, 260, 247, 235, 249, 265, 222, 210, 284, 258, 248, 284, 299, 267, 324, 334, 313, 301, 274, 226, 207, 229, 241, 240, 230, 255, 238, 231, 242, 236, 225, 220, 216, 202, 196, 191, 192, 222, 229, 239, 224, 274, 254, 245, 261, 267, 225, 224, 228, 202},
{232, 182, 236, 249, 268, 284, 284, 230, 234, 206, 198, 199, 221, 214, 223, 208, 218, 240, 244, 253, 270, 278, 254, 252, 233, 215, 205, 242, 232, 225, 233, 241, 194, 186, 201, 187, 167, 248, 248, 242, 249, 250, 175, 191, 187, 178, 181, 173, 166, 185, 176, 187, 183, 179, 168, 171, 165, 164, 223, 225, 230, 235, 235, 186, 191, 204, 192, 201, 228, 259, 245, 243, 244, 220, 181, 191, 184, 216, 210, 193, 228, 230, 188, 187, 191, 133, 169, 174, 172, 183, 193, 197, 203, 207, 214, 206, 185, 174, 173, 144},
{69, 57, 73, 77, 83, 90, 89, 77, 77, 76, 66, 67, 81, 81, 75, 80, 83, 75, 77, 88, 84, 86, 81, 82, 70, 77, 74, 92, 91, 93, 90, 89, 74, 72, 73, 69, 72, 87, 87, 84, 83, 80, 61, 56, 55, 53, 52, 47, 47, 53, 50, 56, 59, 61, 69, 73, 72, 71, 82, 74, 75, 74, 74, 60, 63, 62, 59, 63, 71, 87, 86, 86, 84, 75, 55, 58, 59, 68, 68, 66, 73, 74, 65, 64, 64, 52, 58, 57, 59, 61, 66, 70, 74, 75, 78, 72, 61, 60, 60, 58},
{51, 73, 88, 91, 92, 94, 79, 69, 75, 73, 65, 66, 67, 63, 62, 69, 69, 62, 56, 63, 57, 57, 54, 65, 58, 63, 62, 63, 52, 56, 58, 59, 63, 65, 69, 70, 76, 76, 82, 77, 71, 61, 58, 45, 45, 52, 58, 63, 63, 61, 53, 55, 50, 52, 60, 62, 56, 57, 61, 61, 64, 64, 62, 59, 54, 55, 55, 60, 62, 66, 63, 62, 58, 57, 60, 58, 58, 61, 59, 56, 63, 65, 61, 61, 50, 48, 47, 48, 51, 54, 64, 74, 76, 80, 82, 75, 67, 68, 64, 64},
{34, 31, 34, 37, 36, 36, 37, 38, 37, 40, 40, 41, 42, 46, 43, 48, 47, 45, 39, 41, 39, 39, 37, 42, 40, 42, 45, 47, 43, 45, 51, 58, 60, 63, 69, 64, 57, 55, 58, 53, 49, 45, 44, 34, 29, 34, 35, 36, 36, 36, 32, 35, 39, 40, 38, 44, 43, 39, 40, 41, 39, 39, 38, 38, 37, 37, 38, 36, 37, 44, 42, 40, 41, 41, 39, 38, 37, 39, 39, 38, 41, 42, 40, 41, 36, 33, 33, 31, 30, 32, 34, 39, 41, 44, 44, 46, 42, 42, 39, 42}}

// 10 Reading of the 8 sensors, 100 samples per sensor
{{45, 45, 44, 41, 39, 50, 55, 69, 75, 86, 83, 81, 85, 87, 79, 76, 75, 57, 44, 44, 48, 48, 53, 57, 61, 58, 58, 67, 64, 58, 59, 61, 68, 105, 127, 129, 132, 126, 99, 67, 67, 62, 69, 67, 68, 73, 71, 60, 60, 57, 47, 49, 51, 55, 60, 62, 58, 59, 70, 88, 92, 94, 93, 83, 60, 59, 57, 54, 50, 55, 50, 52, 57, 60, 59, 60, 60, 61, 61, 60, 60, 67, 67, 72, 75, 79, 70, 73, 70, 67, 69, 72, 68, 64, 63, 58, 56, 59, 60, 58},
{110, 108, 105, 100, 102, 111, 115, 129, 144, 153, 169, 173, 178, 169, 158, 136, 150, 145, 143, 150, 166, 149, 131, 138, 159, 142, 152, 167, 161, 146, 151, 135, 134, 185, 222, 227, 239, 234, 198, 155, 148, 131, 151, 151, 141, 151, 153, 126, 124, 124, 99, 101, 110, 112, 125, 125, 122, 111, 131, 150, 147, 145, 149, 131, 91, 120, 120, 126, 129, 137, 123, 119, 147, 150, 168, 162, 167, 133, 132, 110, 126, 128, 132, 135, 153, 152, 149, 154, 159, 135, 151, 153, 151, 157, 153, 140, 145, 158, 142, 141},
{262, 231, 196, 241, 282, 299, 293, 308, 307, 295, 372, 407, 407, 437, 451, 408, 433, 416, 377, 373, 375, 339, 333, 324, 355, 335, 318, 342, 368, 324, 354, 379, 377, 405, 405, 412, 379, 401, 352, 374, 347, 370, 323, 337, 312, 308, 278, 286, 275, 256, 254, 335, 416, 406, 402, 391, 326, 245, 262, 282, 286, 338, 333, 322, 308, 316, 267, 286, 340, 344, 346, 368, 361, 307, 369, 350, 330, 308, 340, 354, 364, 385, 419, 414, 341, 334, 305, 324, 331, 359, 406, 473, 435, 416, 419, 374, 357, 386, 394, 368},
{303, 275, 257, 214, 265, 260, 281, 283, 307, 262, 287, 266, 288, 273, 285, 260, 299, 277, 260, 287, 321, 284, 270, 276, 291, 283, 312, 372, 369, 329, 322, 313, 256, 263, 274, 250, 254, 272, 282, 316, 396, 429, 412, 419, 445, 383, 333, 362, 343, 274, 268, 277, 301, 303, 284, 286, 307, 263, 254, 260, 268, 268, 251, 257, 267, 254, 251, 268, 283, 280, 275, 249, 249, 304, 330, 337, 335, 327, 290, 304, 298, 293, 303, 301, 270, 269, 280, 290, 289, 268, 293, 319, 308, 288, 283, 281, 279, 271, 263, 260},
{218, 212, 223, 192, 207, 197, 205, 205, 223, 205, 228, 224, 216, 197, 207, 177, 190, 192, 197, 221, 232, 217, 205, 226, 211, 220, 232, 256, 238, 233, 229, 222, 194, 206, 214, 212, 226, 245, 244, 253, 288, 293, 278, 265, 265, 217, 199, 204, 219, 214, 215, 216, 236, 224, 199, 208, 203, 186, 198, 208, 188, 215, 221, 213, 200, 223, 193, 196, 207, 219, 197, 193, 170, 214, 210, 215, 228, 239, 230, 219, 209, 200, 208, 167, 175, 179, 191, 191, 192, 180, 203, 186, 178, 179, 201, 188, 205, 202, 192, 167},
{77, 76, 76, 61, 73, 73, 76, 84, 91, 82, 91, 88, 79, 72, 75, 58, 60, 60, 59, 61, 65, 70, 69, 73, 72, 80, 78, 80, 83, 86, 82, 80, 76, 78, 76, 69, 81, 86, 79, 83, 94, 88, 83, 81, 81, 74, 72, 69, 75, 75, 76, 77, 82, 82, 77, 77, 80, 81, 85, 89, 84, 80, 83, 78, 75, 81, 82, 82, 81, 75, 66, 72, 63, 76, 81, 85, 79, 80, 73, 71, 69, 67, 72, 70, 76, 75, 76, 74, 77, 71, 74, 73, 77, 68, 80, 79, 84, 81, 84, 73},
{75, 76, 66, 60, 60, 66, 70, 79, 85, 88, 87, 83, 78, 76, 73, 66, 69, 66, 60, 56, 63, 60, 65, 66, 66, 60, 64, 65, 66, 71, 70, 70, 66, 93, 97, 99, 106, 123, 107, 103, 103, 95, 76, 73, 74, 77, 79, 76, 73, 75, 85, 81, 80, 80, 82, 81, 90, 111, 156, 184, 210, 253, 277, 257, 241, 214, 175, 136, 138, 137, 149, 151, 142, 136, 138, 134, 107, 119, 137, 137, 138, 179, 176, 178, 185, 178, 155, 150, 133, 118, 127, 116, 136, 143, 141, 147, 143, 118, 108, 116},
{41, 44, 42, 39, 40, 40, 38, 44, 46, 43, 46, 47, 50, 53, 55, 54, 56, 50, 45, 46, 46, 41, 39, 41, 41, 38, 36, 43, 41, 39, 39, 42, 38, 130, 183, 191, 201, 215, 184, 131, 124, 115, 91, 74, 73, 76, 82, 79, 78, 80, 74, 55, 49, 59, 74, 99, 108, 135, 156, 232, 252, 310, 326, 322, 270, 266, 210, 185, 182, 190, 163, 144, 129, 122, 129, 131, 125, 165, 168, 154, 190, 231, 205, 216, 219, 186, 153, 151, 132, 125, 161, 149, 160, 156, 163, 135, 127, 106, 108, 111}}

// 11 Reading of the 8 sensors, 100 samples per sensor
{{47, 48, 56, 56, 55, 55, 55, 49, 50, 48, 50, 50, 55, 59, 60, 57, 56, 54, 56, 59, 60, 58, 53, 45, 39, 45, 43, 47, 47, 52, 47, 54, 52, 56, 57, 57, 53, 56, 58, 52, 58, 58, 60, 54, 57, 50, 54, 54, 58, 58, 57, 51, 55, 52, 57, 60, 65, 59, 62, 56, 53, 54, 53, 50, 53, 54, 49, 47, 46, 44, 55, 52, 57, 59, 58, 47, 48, 41, 41, 53, 54, 56, 57, 54, 44, 50, 49, 50, 50, 52, 46, 45, 44, 48, 47, 46, 44, 47, 48, 51},
{93, 106, 138, 138, 143, 146, 146, 124, 125, 125, 117, 114, 108, 111, 119, 114, 116, 119, 109, 101, 104, 107, 101, 101, 105, 111, 111, 112, 110, 116, 105, 94, 92, 99, 111, 113, 124, 125, 124, 104, 115, 105, 106, 106, 123, 117, 131, 139, 155, 141, 147, 130, 134, 121, 132, 132, 140, 132, 136, 125, 117, 107, 110, 106, 113, 119, 126, 119, 109, 100, 117, 110, 108, 109, 113, 85, 86, 85, 81, 99, 100, 110, 109, 107, 86, 83, 67, 76, 85, 86, 92, 102, 97, 92, 97, 100, 91, 100, 100, 101},
{270, 264, 270, 264, 253, 268, 295, 285, 272, 279, 254, 239, 250, 235, 246, 261, 255, 279, 277, 297, 283, 307, 284, 296, 293, 294, 288, 294, 285, 257, 236, 220, 266, 286, 307, 327, 328, 296, 295, 288, 292, 304, 300, 284, 291, 271, 284, 284, 324, 328, 328, 293, 277, 244, 233, 274, 281, 300, 309, 297, 256, 256, 264, 249, 236, 261, 271, 236, 250, 297, 284, 274, 278, 318, 312, 307, 326, 346, 299, 276, 294, 274, 270, 262, 257, 235, 218, 227, 260, 259, 280, 288, 304, 304, 332, 323, 331, 323, 304, 287},
{212, 210, 222, 224, 254, 280, 288, 294, 311, 284, 297, 298, 281, 247, 259, 224, 196, 225, 246, 272, 265, 276, 271, 267, 334, 348, 364, 402, 402, 356, 352, 322, 269, 262, 235, 281, 284, 309, 322, 307, 278, 282, 252, 228, 241, 221, 213, 296, 307, 335, 397, 396, 345, 361, 330, 268, 313, 308, 291, 314, 300, 249, 267, 255, 245, 260, 271, 243, 288, 291, 278, 284, 298, 254, 267, 271, 326, 325, 335, 315, 341, 286, 284, 271, 258, 226, 233, 224, 228, 232, 212, 302, 314, 320, 331, 359, 275, 250, 247, 255},
{216, 217, 203, 217, 237, 237, 218, 227, 230, 222, 228, 227, 210, 192, 200, 185, 177, 186, 203, 201, 194, 218, 233, 241, 296, 315, 318, 330, 335, 289, 287, 269, 248, 259, 255, 274, 284, 273, 253, 243, 223, 205, 220, 206, 226, 199, 208, 221, 235, 220, 277, 284, 263, 287, 304, 264, 272, 288, 258, 239, 228, 202, 207, 206, 198, 216, 230, 194, 209, 213, 216, 245, 254, 231, 228, 207, 202, 242, 244, 246, 270, 241, 206, 215, 223, 210, 208, 217, 218, 209, 200, 231, 218, 206, 220, 215, 169, 159, 161, 175},
{83, 71, 64, 72, 80, 82, 81, 83, 78, 71, 70, 65, 70, 68, 67, 66, 69, 61, 65, 70, 67, 73, 80, 83, 90, 98, 93, 94, 94, 87, 82, 82, 75, 83, 79, 86, 88, 88, 78, 82, 76, 75, 81, 77, 78, 69, 77, 73, 75, 70, 87, 79, 80, 79, 82, 67, 70, 77, 76, 74, 74, 70, 63, 62, 58, 58, 57, 52, 59, 63, 64, 77, 77, 72, 68, 69, 69, 73, 80, 78, 83, 77, 71, 67, 77, 76, 73, 77, 75, 68, 65, 75, 73, 76, 79, 76, 65, 65, 68, 79},
{82, 62, 59, 57, 59, 65, 76, 76, 76, 69, 68, 54, 58, 61, 60, 59, 67, 62, 61, 77, 76, 67, 68, 72, 59, 62, 62, 64, 62, 64, 61, 63, 61, 66, 64, 66, 66, 67, 71, 70, 66, 66, 74, 64, 63, 64, 67, 64, 65, 68, 70, 70, 70, 71, 67, 68, 71, 72, 73, 76, 72, 64, 57, 58, 54, 55, 54, 54, 55, 62, 62, 71, 69, 67, 66, 73, 70, 71, 71, 66, 61, 58, 58, 60, 66, 71, 70, 68, 68, 64, 59, 63, 67, 74, 76, 78, 86, 85, 86, 86},
{45, 44, 48, 52, 49, 64, 69, 69, 71, 73, 65, 63, 62, 57, 73, 74, 73, 72, 75, 67, 70, 74, 73, 74, 74, 72, 74, 77, 77, 81, 76, 81, 82, 81, 68, 68, 51, 45, 41, 40, 41, 45, 47, 47, 47, 46, 43, 48, 49, 50, 50, 46, 36, 35, 40, 43, 45, 45, 46, 42, 46, 46, 44, 42, 45, 39, 38, 49, 51, 49, 50, 52, 44, 44, 43, 42, 42, 40, 41, 44, 44, 42, 43, 42, 42, 45, 47, 45, 44, 44, 40, 39, 38, 45, 43, 41, 44, 47, 46, 48}}

// 12 Reading of the 8 sensors, 100 samples per sensor
{{43, 44, 44, 47, 50, 68, 76, 78, 80, 80, 64, 58, 56, 58, 63, 73, 80, 86, 87, 84, 78, 69, 76, 72, 78, 76, 75, 60, 62, 52, 59, 66, 74, 73, 78, 76, 77, 77, 77, 82, 83, 80, 75, 75, 65, 60, 58, 58, 54, 54, 54, 48, 53, 55, 55, 60, 66, 81, 90, 93, 101, 105, 99, 105, 105, 95, 88, 86, 67, 65, 65, 63, 55, 79, 84, 81, 90, 87, 64, 59, 68, 61, 63, 64, 65, 58, 65, 64, 68, 63, 66, 57, 64, 61, 61, 57, 59, 53, 52, 50},
{115, 117, 113, 112, 107, 137, 211, 220, 228, 228, 211, 146, 137, 131, 152, 172, 185, 186, 191, 181, 166, 158, 170, 154, 167, 172, 182, 186, 199, 191, 186, 184, 184, 175, 176, 182, 189, 183, 196, 231, 260, 265, 255, 250, 218, 175, 142, 140, 130, 133, 133, 120, 140, 141, 129, 124, 133, 172, 195, 195, 199, 207, 164, 146, 145, 150, 142, 163, 157, 162, 160, 154, 136, 169, 174, 171, 192, 188, 149, 134, 148, 144, 139, 142, 149, 132, 130, 137, 149, 148, 158, 135, 142, 125, 117, 99, 108, 103, 108, 109},
{298, 323, 389, 492, 517, 627, 677, 651, 598, 567, 460, 425, 424, 427, 451, 461, 480, 485, 493, 477, 440, 420, 407, 390, 386, 396, 398, 416, 392, 404, 433, 450, 503, 528, 539, 538, 539, 510, 516, 587, 598, 557, 544, 569, 488, 441, 442, 455, 387, 429, 456, 454, 490, 558, 511, 485, 481, 492, 479, 505, 563, 584, 532, 521, 513, 463, 434, 417, 399, 417, 430, 438, 520, 500, 490, 485, 532, 466, 468, 448, 451, 440, 413, 413, 413, 400, 338, 336, 360, 410, 441, 460, 474, 438, 371, 357, 341, 348, 345, 369},
{295, 282, 317, 331, 374, 461, 534, 541, 522, 470, 383, 378, 351, 352, 417, 412, 317, 318, 323, 279, 351, 402, 402, 386, 366, 331, 283, 272, 322, 313, 302, 363, 427, 459, 472, 472, 442, 401, 363, 383, 408, 406, 405, 427, 415, 381, 371, 355, 323, 309, 345, 327, 362, 411, 407, 379, 393, 359, 264, 269, 317, 288, 290, 311, 296, 267, 271, 262, 240, 238, 193, 236, 282, 292, 293, 345, 322, 310, 321, 333, 294, 335, 310, 287, 312, 298, 253, 240, 251, 236, 237, 220, 255, 257, 237, 255, 293, 290, 290, 291},
{261, 275, 294, 297, 283, 315, 326, 336, 323, 304, 283, 297, 278, 285, 317, 312, 285, 282, 283, 281, 322, 332, 334, 317, 285, 220, 170, 175, 216, 228, 248, 274, 292, 288, 291, 280, 293, 283, 290, 299, 340, 313, 299, 306, 314, 274, 288, 283, 244, 211, 220, 185, 187, 245, 241, 245, 274, 273, 220, 235, 225, 190, 197, 217, 199, 216, 212, 234, 223, 237, 212, 242, 239, 249, 237, 246, 222, 195, 187, 195, 199, 232, 229, 218, 282, 272, 249, 248, 265, 230, 219, 208, 246, 245, 208, 226, 251, 240, 231, 233},
{85, 75, 83, 81, 78, 82, 91, 98, 106, 109, 107, 120, 114, 112, 116, 117, 105, 109, 115, 118, 113, 120, 120, 111, 100, 98, 80, 76, 70, 69, 82, 84, 82, 83, 96, 94, 95, 99, 102, 100, 115, 114, 115, 125, 122, 103, 109, 104, 112, 116, 120, 111, 119, 106, 97, 97, 112, 102, 92, 103, 102, 88, 92, 99, 93, 91, 88, 95, 85, 88, 81, 84, 76, 77, 69, 84, 89, 86, 82, 82, 78, 79, 84, 96, 101, 100, 95, 89, 89, 94, 88, 84, 86, 81, 66, 65, 64, 67, 59, 60},
{57, 58, 59, 60, 67, 69, 69, 75, 88, 89, 86, 90, 87, 87, 84, 86, 82, 86, 84, 92, 87, 96, 101, 99, 94, 98, 91, 84, 81, 71, 75, 70, 66, 61, 77, 76, 76, 78, 81, 75, 78, 77, 79, 80, 76, 66, 70, 85, 153, 169, 173, 171, 170, 119, 97, 99, 111, 104, 103, 130, 132, 126, 159, 233, 233, 236, 238, 228, 155, 139, 140, 144, 135, 136, 137, 126, 117, 118, 140, 132, 152, 159, 156, 136, 146, 124, 116, 107, 101, 89, 91, 100, 105, 113, 124, 127, 115, 109, 102, 82},
{40, 38, 41, 42, 47, 52, 56, 56, 60, 59, 53, 56, 55, 56, 57, 61, 60, 64, 61, 63, 58, 61, 66, 68, 68, 70, 67, 58, 56, 49, 52, 53, 57, 54, 61, 59, 57, 54, 53, 50, 52, 50, 50, 53, 52, 48, 50, 48, 49, 46, 46, 44, 48, 50, 52, 54, 64, 65, 60, 64, 66, 64, 65, 81, 81, 79, 73, 81, 66, 64, 63, 61, 49, 55, 49, 53, 53, 48, 46, 51, 49, 51, 55, 51, 47, 49, 51, 48, 48, 48, 48, 44, 46, 50, 52, 49, 46, 46, 42, 40}}

// 13 Reading of the 8 sensors, 100 samples per sensor
{{79, 71, 81, 79, 76, 76, 77, 64, 64, 68, 62, 59, 58, 56, 62, 65, 74, 76, 79, 72, 67, 52, 48, 49, 55, 60, 64, 65, 60, 52, 45, 45, 43, 43, 50, 53, 52, 56, 60, 56, 53, 57, 58, 62, 67, 76, 71, 75, 75, 73, 65, 65, 58, 50, 46, 50, 51, 62, 60, 63, 63, 61, 56, 57, 55, 50, 57, 52, 51, 54, 53, 46, 42, 40, 38, 40, 49, 50, 54, 50, 51, 44, 48, 44, 50, 48, 47, 45, 46, 45, 47, 49, 51, 49, 49, 48, 48, 45, 45, 45},
{162, 147, 159, 156, 137, 134, 141, 138, 139, 137, 131, 116, 104, 100, 120, 132, 135, 145, 147, 130, 119, 137, 131, 132, 146, 171, 166, 167, 163, 149, 116, 107, 97, 105, 107, 111, 102, 113, 112, 113, 109, 111, 104, 100, 99, 106, 98, 93, 99, 107, 110, 108, 115, 117, 104, 99, 102, 104, 94, 99, 101, 101, 107, 107, 105, 108, 111, 98, 103, 109, 100, 92, 88, 86, 82, 96, 105, 116, 122, 114, 109, 103, 94, 84, 96, 91, 104, 99, 95, 102, 102, 100, 102, 107, 88, 94, 88, 96, 97, 114},
{416, 328, 327, 317, 304, 306, 339, 313, 342, 363, 387, 400, 430, 400, 440, 442, 391, 387, 440, 414, 396, 418, 395, 349, 333, 342, 326, 339, 345, 360, 367, 407, 423, 429, 410, 370, 347, 301, 302, 346, 360, 358, 388, 376, 333, 382, 397, 372, 401, 435, 394, 345, 361, 321, 255, 251, 260, 230, 266, 285, 366, 373, 387, 369, 354, 261, 269, 267, 275, 304, 297, 265, 244, 231, 254, 328, 379, 389, 394, 362, 346, 337, 336, 329, 353, 324, 316, 301, 297, 298, 303, 276, 276, 289, 244, 224, 239, 248, 245, 262},
{401, 434, 431, 443, 406, 400, 357, 312, 273, 276, 267, 227, 225, 252, 274, 296, 282, 325, 318, 311, 283, 286, 239, 223, 251, 263, 284, 276, 294, 249, 247, 243, 267, 315, 335, 367, 354, 346, 307, 288, 226, 295, 361, 398, 422, 452, 424, 391, 360, 344, 342, 361, 345, 370, 377, 357, 351, 348, 305, 271, 307, 354, 381, 376, 380, 345, 338, 323, 331, 332, 365, 348, 339, 339, 354, 332, 312, 301, 337, 365, 342, 337, 358, 318, 268, 309, 284, 257, 257, 286, 307, 307, 292, 287, 277, 295, 300, 317, 330, 328},
{294, 305, 321, 328, 306, 308, 274, 272, 253, 214, 200, 194, 178, 189, 207, 229, 229, 236, 230, 222, 187, 195, 183, 191, 212, 227, 239, 233, 226, 198, 175, 201, 205, 223, 239, 254, 217, 219, 209, 207, 191, 226, 222, 252, 259, 265, 241, 240, 211, 208, 243, 268, 300, 321, 316, 311, 292, 267, 233, 218, 192, 206, 201, 198, 208, 195, 204, 218, 221, 234, 263, 272, 276, 276, 289, 284, 272, 280, 301, 312, 296, 281, 268, 240, 197, 211, 213, 206, 225, 253, 262, 255, 245, 224, 203, 212, 209, 214, 225, 209},
{79, 76, 85, 88, 88, 90, 79, 80, 79, 70, 67, 71, 59, 59, 70, 80, 79, 86, 87, 83, 65, 64, 64, 64, 64, 72, 77, 71, 72, 72, 77, 85, 87, 89, 96, 91, 82, 79, 75, 66, 64, 65, 66, 79, 79, 79, 82, 85, 79, 82, 85, 92, 96, 98, 96, 105, 97, 87, 83, 82, 65, 68, 74, 68, 71, 77, 90, 96, 99, 100, 104, 92, 88, 89, 94, 90, 97, 97, 100, 105, 109, 97, 95, 89, 75, 62, 69, 63, 74, 82, 89, 83, 82, 74, 65, 64, 71, 70, 69, 65},
{60, 58, 65, 58, 75, 81, 78, 75, 77, 60, 62, 66, 66, 67, 70, 72, 70, 70, 73, 76, 66, 67, 69, 69, 64, 68, 77, 113, 177, 214, 223, 225, 210, 169, 128, 120, 131, 140, 151, 147, 164, 187, 202, 203, 213, 203, 219, 221, 209, 209, 205, 160, 138, 138, 165, 179, 175, 180, 208, 192, 174, 175, 167, 152, 144, 170, 169, 215, 213, 219, 223, 227, 188, 201, 195, 177, 172, 173, 142, 154, 164, 170, 175, 197, 179, 164, 158, 142, 97, 105, 97, 112, 116, 117, 137, 143, 132, 137, 143, 115},
{50, 47, 45, 43, 82, 91, 90, 90, 92, 62, 52, 51, 52, 60, 63, 58, 60, 58, 49, 46, 47, 44, 44, 42, 43, 43, 45, 44, 56, 56, 58, 60, 63, 55, 57, 57, 58, 55, 54, 50, 58, 121, 130, 138, 141, 143, 100, 122, 123, 122, 124, 121, 88, 74, 75, 66, 60, 57, 65, 107, 111, 111, 111, 132, 113, 107, 112, 119, 102, 93, 102, 101, 106, 135, 135, 130, 133, 126, 84, 77, 80, 78, 79, 81, 80, 75, 65, 67, 62, 82, 85, 86, 78, 82, 67, 60, 77, 86, 83, 80}}

// 14 Reading of the 8 sensors, 100 samples per sensor
{{55, 53, 42, 34, 35, 35, 38, 43, 47, 53, 77, 84, 82, 85, 83, 60, 51, 52, 43, 41, 45, 47, 49, 51, 60, 56, 53, 56, 56, 52, 52, 50, 50, 54, 48, 50, 54, 59, 56, 55, 53, 51, 41, 38, 42, 39, 35, 38, 41, 37, 40, 49, 47, 44, 46, 54, 51, 50, 52, 53, 45, 42, 44, 44, 48, 47, 45, 44, 47, 46, 44, 45, 48, 43, 39, 38, 38, 28, 27, 28, 32, 33, 36, 39, 37, 44, 45, 47, 47, 48, 46, 47, 44, 43, 43, 41, 40, 45, 44, 43},
{242, 184, 115, 106, 94, 82, 81, 82, 99, 100, 132, 148, 155, 154, 150, 124, 101, 95, 79, 83, 92, 102, 94, 98, 114, 110, 104, 111, 109, 95, 92, 85, 80, 87, 87, 95, 107, 113, 122, 124, 120, 115, 107, 86, 77, 86, 82, 86, 100, 105, 94, 95, 88, 75, 73, 84, 91, 108, 109, 112, 109, 100, 104, 101, 94, 94, 98, 86, 115, 116, 123, 122, 134, 113, 115, 105, 110, 85, 83, 80, 87, 81, 97, 105, 106, 113, 121, 112, 108, 107, 107, 100, 98, 96, 98, 83, 82, 99, 95, 99},
{410, 395, 303, 278, 281, 282, 227, 236, 227, 167, 216, 257, 284, 287, 299, 268, 248, 227, 228, 219, 224, 211, 215, 235, 234, 254, 276, 298, 300, 311, 294, 280, 249, 257, 264, 260, 263, 265, 259, 241, 260, 264, 301, 313, 320, 314, 316, 305, 275, 279, 260, 252, 229, 265, 246, 292, 307, 327, 324, 344, 326, 306, 315, 309, 297, 293, 305, 292, 299, 307, 320, 321, 339, 317, 301, 279, 286, 225, 229, 233, 265, 262, 336, 381, 390, 369, 365, 295, 226, 214, 227, 224, 249, 299, 303, 289, 282, 287, 271, 276},
{214, 265, 266, 258, 271, 281, 259, 276, 257, 227, 255, 250, 285, 296, 291, 260, 271, 223, 213, 217, 209, 182, 195, 198, 197, 203, 206, 197, 212, 228, 240, 251, 237, 232, 229, 209, 197, 206, 190, 178, 194, 201, 215, 238, 242, 248, 230, 223, 204, 194, 176, 194, 199, 203, 241, 270, 278, 273, 301, 283, 286, 269, 283, 262, 250, 219, 222, 203, 183, 183, 188, 188, 177, 186, 207, 190, 184, 194, 181, 151, 193, 228, 251, 285, 306, 287, 267, 230, 195, 184, 183, 177, 176, 167, 152, 161, 144, 157, 155, 143},
{209, 228, 201, 217, 224, 226, 227, 247, 222, 216, 259, 251, 237, 268, 266, 220, 225, 228, 187, 172, 163, 132, 160, 168, 172, 184, 190, 192, 221, 245, 246, 253, 225, 211, 177, 167, 153, 157, 130, 145, 142, 142, 145, 156, 142, 154, 155, 146, 136, 137, 139, 120, 131, 145, 152, 166, 196, 194, 198, 196, 180, 152, 152, 135, 147, 142, 137, 137, 130, 130, 143, 158, 156, 177, 190, 178, 173, 201, 186, 159, 158, 177, 157, 209, 222, 234, 222, 214, 182, 185, 164, 156, 156, 158, 136, 150, 151, 150, 121, 122},
{77, 84, 80, 88, 85, 80, 79, 79, 66, 62, 81, 83, 82, 89, 89, 71, 63, 63, 52, 51, 54, 52, 63, 65, 68, 67, 69, 69, 73, 77, 79, 82, 74, 69, 63, 59, 53, 56, 63, 65, 66, 66, 63, 54, 51, 61, 58, 60, 60, 58, 50, 48, 45, 51, 56, 62, 68, 70, 71, 67, 59, 53, 61, 57, 59, 59, 59, 55, 59, 58, 59, 64, 60, 55, 64, 61, 57, 65, 64, 54, 56, 61, 53, 63, 72, 71, 70, 69, 64, 61, 63, 59, 62, 68, 65, 65, 69, 70, 62, 59},
{50, 55, 52, 54, 53, 47, 43, 45, 42, 46, 50, 48, 45, 51, 46, 45, 64, 65, 60, 62, 64, 49, 48, 50, 51, 47, 45, 50, 53, 55, 56, 59, 51, 57, 59, 55, 54, 58, 62, 67, 70, 74, 83, 76, 73, 88, 93, 94, 91, 90, 74, 59, 41, 43, 47, 51, 53, 54, 54, 46, 41, 45, 53, 54, 58, 63, 63, 59, 60, 61, 55, 57, 54, 52, 53, 54, 49, 53, 53, 49, 47, 53, 48, 52, 58, 61, 60, 66, 62, 58, 65, 62, 62, 71, 71, 73, 76, 76, 78, 76},
{40, 41, 36, 33, 33, 34, 31, 32, 31, 32, 44, 44, 43, 45, 44, 31, 34, 36, 34, 35, 33, 32, 34, 34, 33, 39, 39, 41, 41, 44, 39, 39, 36, 36, 33, 33, 32, 36, 44, 44, 47, 47, 42, 37, 41, 37, 36, 41, 38, 34, 34, 34, 33, 31, 32, 33, 37, 34, 36, 35, 36, 35, 39, 38, 40, 41, 41, 40, 42, 44, 42, 46, 43, 40, 39, 38, 32, 29, 31, 27, 26, 30, 32, 32, 33, 35, 35, 36, 34, 34, 34, 32, 30, 38, 39, 43, 44, 46, 39, 37}}

// 15 Reading of the 8 sensors, 100 samples per sensor
{{41, 47, 61, 109, 123, 124, 126, 123, 96, 78, 78, 72, 66, 52, 62, 62, 61, 64, 59, 47, 67, 92, 106, 120, 127, 133, 124, 114, 111, 104, 85, 85, 97, 89, 94, 89, 86, 82, 82, 81, 86, 83, 73, 76, 73, 79, 77, 77, 72, 71, 67, 67, 77, 75, 70, 65, 72, 58, 56, 68, 69, 60, 61, 73, 66, 62, 62, 67, 65, 68, 69, 70, 71, 63, 69, 85, 86, 81, 80, 71, 62, 61, 64, 67, 69, 67, 73, 72, 66, 69, 67, 57, 55, 69, 63, 58, 60, 67, 58, 58},
{93, 97, 139, 173, 175, 177, 181, 172, 188, 183, 183, 175, 153, 98, 162, 166, 170, 175, 177, 131, 138, 162, 176, 203, 215, 241, 236, 228, 219, 200, 169, 163, 185, 173, 177, 167, 167, 149, 142, 143, 148, 137, 118, 119, 129, 139, 149, 158, 153, 146, 144, 140, 166, 165, 162, 150, 141, 105, 95, 97, 110, 109, 114, 133, 131, 119, 120, 136, 136, 168, 171, 170, 156, 147, 141, 146, 162, 164, 162, 140, 132, 118, 107, 121, 118, 130, 161, 165, 153, 162, 150, 114, 118, 137, 128, 127, 134, 144, 152, 162},
{358, 373, 401, 438, 401, 422, 521, 539, 583, 570, 565, 479, 420, 312, 353, 339, 301, 298, 373, 374, 409, 449, 487, 509, 494, 495, 516, 498, 510, 527, 555, 521, 543, 476, 480, 432, 423, 397, 438, 424, 406, 454, 443, 402, 370, 487, 430, 466, 462, 464, 339, 344, 396, 458, 460, 452, 448, 369, 264, 305, 306, 296, 316, 336, 322, 336, 348, 346, 325, 323, 360, 364, 328, 344, 380, 351, 365, 407, 396, 388, 392, 406, 369, 364, 331, 363, 376, 389, 394, 390, 397, 367, 369, 413, 401, 351, 326, 332, 276, 300},
{259, 279, 278, 289, 309, 336, 360, 397, 398, 398, 404, 391, 364, 348, 345, 341, 368, 347, 345, 383, 371, 320, 331, 370, 323, 357, 379, 406, 386, 389, 360, 327, 302, 338, 347, 355, 405, 485, 480, 494, 501, 515, 441, 441, 409, 429, 399, 430, 395, 395, 388, 358, 321, 359, 352, 312, 320, 327, 293, 337, 343, 340, 313, 304, 295, 328, 326, 423, 419, 392, 380, 379, 276, 290, 326, 289, 281, 301, 281, 251, 291, 283, 273, 306, 316, 319, 348, 380, 354, 340, 368, 371, 347, 370, 360, 296, 251, 231, 208, 224},
{162, 181, 218, 223, 226, 234, 224, 219, 222, 234, 237, 244, 220, 209, 202, 180, 171, 181, 190, 196, 191, 192, 196, 211, 209, 226, 221, 243, 228, 215, 203, 209, 176, 179, 177, 172, 183, 248, 266, 278, 284, 279, 240, 213, 189, 207, 204, 180, 176, 202, 219, 225, 223, 225, 214, 167, 143, 152, 146, 156, 162, 164, 163, 162, 150, 162, 165, 174, 177, 191, 180, 178, 164, 167, 159, 160, 154, 178, 186, 169, 159, 178, 159, 141, 137, 162, 184, 205, 213, 213, 204, 190, 171, 160, 168, 174, 154, 141, 151, 150},
{65, 77, 85, 91, 89, 91, 83, 81, 83, 91, 93, 96, 88, 80, 70, 60, 53, 55, 60, 64, 66, 63, 63, 65, 63, 66, 69, 75, 73, 72, 70, 76, 73, 76, 73, 74, 66, 74, 77, 81, 87, 86, 81, 72, 66, 64, 72, 65, 68, 73, 83, 83, 85, 81, 81, 66, 57, 59, 68, 70, 71, 76, 78, 76, 76, 79, 75, 76, 76, 80, 77, 77, 69, 65, 61, 65, 65, 70, 70, 63, 53, 56, 56, 55, 58, 64, 73, 71, 72, 74, 72, 63, 66, 67, 65, 72, 71, 63, 63, 65},
{65, 69, 68, 69, 64, 69, 71, 84, 97, 111, 117, 118, 106, 95, 73, 62, 54, 52, 54, 55, 59, 72, 72, 74, 75, 71, 60, 69, 66, 64, 60, 65, 62, 63, 64, 70, 63, 58, 58, 63, 67, 70, 69, 68, 70, 61, 63, 63, 67, 64, 66, 61, 63, 57, 56, 56, 56, 69, 85, 83, 87, 88, 82, 76, 79, 74, 73, 76, 68, 65, 71, 74, 63, 63, 63, 61, 56, 59, 58, 58, 50, 49, 49, 50, 52, 54, 57, 56, 53, 61, 62, 65, 70, 71, 68, 69, 71, 69, 73, 77},
{34, 40, 41, 63, 64, 66, 68, 94, 100, 105, 110, 110, 89, 74, 63, 52, 46, 46, 38, 37, 44, 51, 52, 51, 54, 52, 47, 46, 48, 44, 42, 45, 50, 49, 48, 47, 46, 40, 41, 45, 48, 49, 48, 50, 47, 47, 47, 48, 49, 52, 48, 45, 42, 35, 30, 32, 33, 39, 48, 55, 54, 54, 54, 56, 52, 51, 51, 51, 46, 46, 49, 49, 45, 42, 43, 45, 46, 48, 45, 43, 40, 37, 40, 42, 47, 47, 49, 48, 45, 39, 46, 47, 47, 51, 54, 47, 48, 49, 48, 47}}

// 16 Reading of the 8 sensors, 100 samples per sensor
{{59, 54, 53, 51, 51, 59, 66, 63, 67, 66, 67, 60, 64, 64, 61, 57, 63, 60, 60, 63, 58, 58, 66, 58, 55, 56, 50, 47, 54, 60, 59, 58, 52, 44, 34, 36, 40, 42, 42, 49, 47, 45, 49, 50, 44, 43, 47, 40, 40, 43, 45, 41, 44, 49, 47, 45, 57, 61, 57, 58, 57, 48, 46, 44, 47, 51, 52, 48, 48, 47, 48, 43, 43, 46, 46, 43, 46, 46, 41, 39, 38, 39, 39, 40, 36, 41, 38, 40, 41, 48, 47, 46, 45, 44, 41, 40, 39, 39, 37, 38},
{110, 105, 110, 114, 116, 125, 151, 139, 166, 163, 166, 138, 138, 107, 104, 101, 118, 116, 126, 135, 139, 129, 135, 120, 115, 101, 99, 102, 105, 104, 105, 108, 106, 99, 88, 88, 92, 85, 93, 95, 96, 96, 116, 118, 119, 121, 112, 87, 85, 81, 75, 86, 96, 91, 95, 93, 86, 87, 86, 81, 74, 83, 82, 81, 92, 102, 99, 95, 95, 94, 96, 95, 96, 94, 96, 92, 94, 94, 99, 96, 96, 86, 82, 78, 66, 61, 63, 74, 76, 90, 87, 84, 77, 76, 62, 66, 74, 74, 75, 89},
{327, 311, 346, 344, 341, 376, 437, 383, 395, 396, 374, 311, 284, 289, 284, 301, 302, 309, 274, 278, 244, 237, 227, 222, 219, 211, 212, 221, 253, 230, 253, 270, 306, 279, 291, 289, 295, 273, 274, 264, 269, 267, 276, 274, 272, 279, 274, 245, 249, 250, 234, 248, 266, 276, 296, 295, 282, 283, 279, 283, 269, 239, 237, 237, 207, 212, 246, 239, 264, 263, 275, 260, 270, 255, 296, 294, 287, 279, 259, 227, 213, 236, 238, 239, 226, 223, 206, 196, 202, 209, 216, 192, 193, 205, 202, 197, 208, 212, 222, 240},
{290, 331, 309, 315, 303, 296, 254, 247, 232, 210, 204, 248, 286, 285, 333, 336, 305, 307, 338, 295, 282, 317, 313, 279, 278, 289, 265, 271, 291, 279, 286, 285, 253, 236, 243, 236, 223, 239, 239, 234, 248, 259, 273, 282, 278, 287, 271, 230, 220, 247, 266, 311, 333, 342, 327, 293, 260, 258, 236, 245, 251, 235, 232, 257, 240, 243, 254, 250, 233, 240, 245, 235, 222, 234, 269, 245, 241, 234, 223, 176, 168, 212, 210, 193, 203, 207, 158, 188, 199, 253, 262, 265, 248, 291, 234, 239, 253, 276, 242, 263},
{160, 181, 183, 183, 187, 180, 159, 146, 146, 139, 128, 145, 149, 162, 200, 210, 221, 227, 262, 251, 242, 234, 249, 201, 192, 193, 206, 194, 203, 195, 197, 182, 166, 155, 147, 161, 151, 153, 165, 173, 191, 192, 212, 213, 208, 195, 189, 165, 148, 155, 184, 195, 235, 253, 250, 217, 214, 184, 160, 161, 173, 164, 158, 184, 181, 171, 175, 155, 121, 130, 138, 131, 132, 143, 156, 159, 167, 167, 176, 160, 161, 166, 170, 152, 148, 133, 122, 111, 105, 152, 162, 171, 171, 209, 177, 168, 184, 218, 194, 200},
{79, 81, 85, 77, 81, 69, 67, 59, 57, 45, 51, 58, 63, 71, 70, 72, 73, 71, 73, 75, 69, 64, 66, 57, 52, 54, 63, 64, 65, 70, 70, 67, 61, 59, 53, 55, 56, 58, 59, 63, 60, 53, 68, 70, 71, 74, 76, 63, 57, 59, 61, 58, 77, 79, 77, 72, 74, 67, 65, 70, 73, 73, 62, 71, 61, 60, 61, 65, 57, 60, 59, 55, 49, 51, 52, 56, 62, 62, 60, 58, 54, 50, 51, 53, 53, 54, 55, 53, 49, 53, 52, 49, 51, 59, 53, 58, 59, 60, 58, 60},
{86, 84, 87, 85, 82, 77, 77, 68, 62, 52, 47, 43, 45, 47, 64, 66, 72, 73, 75, 65, 74, 71, 69, 70, 66, 64, 64, 65, 62, 65, 54, 56, 57, 56, 54, 58, 57, 56, 61, 64, 62, 66, 75, 75, 71, 73, 76, 69, 64, 63, 61, 56, 62, 66, 68, 68, 65, 64, 61, 61, 61, 61, 53, 55, 59, 57, 60, 62, 58, 55, 61, 57, 55, 59, 58, 51, 52, 54, 48, 47, 46, 44, 44, 45, 45, 48, 51, 49, 49, 49, 50, 51, 53, 51, 51, 63, 63, 63, 64, 63},
{42, 42, 40, 40, 45, 42, 44, 46, 46, 44, 45, 42, 41, 41, 38, 37, 40, 40, 39, 43, 41, 39, 37, 38, 31, 33, 33, 35, 35, 41, 40, 42, 41, 40, 35, 36, 37, 37, 36, 41, 38, 37, 37, 40, 35, 36, 37, 37, 33, 35, 36, 32, 31, 39, 37, 37, 39, 43, 38, 39, 38, 37, 33, 32, 28, 26, 31, 35, 33, 34, 36, 30, 27, 28, 31, 31, 32, 29, 28, 26, 27, 29, 30, 30, 27, 27, 30, 29, 32, 37, 35, 32, 37, 38, 35, 37, 38, 35, 36, 37}}

// 17 Reading of the 8 sensors, 100 samples per sensor
{{25, 27, 28, 28, 30, 28, 27, 28, 33, 34, 35, 35, 34, 30, 28, 30, 31, 39, 40, 42, 40, 40, 34, 34, 32, 34, 35, 48, 50, 53, 53, 55, 46, 46, 46, 45, 51, 51, 49, 48, 48, 44, 47, 48, 52, 53, 50, 49, 50, 45, 42, 42, 37, 37, 37, 37, 38, 39, 38, 38, 40, 37, 35, 34, 32, 31, 38, 38, 39, 41, 37, 32, 36, 35, 36, 39, 38, 36, 37, 33, 31, 33, 42, 43, 43, 46, 51, 43, 47, 50, 49, 46, 52, 49, 53, 54, 51, 49, 52, 48},
{73, 73, 71, 75, 64, 53, 52, 54, 53, 62, 66, 65, 65, 75, 73, 92, 101, 100, 96, 93, 79, 70, 73, 72, 74, 70, 71, 87, 90, 95, 104, 117, 111, 111, 124, 119, 124, 126, 130, 126, 125, 128, 125, 127, 139, 146, 130, 134, 128, 102, 94, 102, 96, 96, 95, 90, 77, 76, 75, 76, 76, 75, 79, 85, 86, 85, 103, 100, 96, 101, 99, 93, 88, 85, 84, 88, 79, 86, 86, 78, 75, 113, 181, 189, 187, 199, 211, 167, 163, 165, 168, 169, 170, 176, 200, 190, 152, 150, 148, 110},
{198, 195, 209, 278, 269, 282, 279, 278, 223, 226, 211, 217, 233, 246, 246, 305, 307, 292, 299, 313, 267, 262, 270, 234, 224, 209, 206, 214, 213, 188, 216, 230, 229, 235, 239, 224, 231, 243, 258, 275, 263, 259, 237, 231, 264, 273, 260, 295, 306, 283, 277, 305, 289, 280, 274, 291, 290, 291, 306, 295, 290, 277, 311, 318, 315, 326, 325, 273, 257, 275, 249, 239, 246, 239, 230, 276, 289, 307, 311, 323, 290, 339, 419, 412, 402, 414, 380, 275, 269, 278, 268, 328, 332, 368, 380, 375, 313, 345, 312, 301},
{176, 194, 200, 206, 165, 167, 163, 168, 167, 177, 161, 158, 151, 157, 147, 158, 147, 141, 179, 190, 175, 182, 189, 148, 140, 147, 197, 216, 220, 213, 233, 195, 172, 183, 217, 197, 218, 220, 226, 203, 216, 195, 214, 210, 208, 233, 236, 227, 209, 258, 253, 251, 240, 252, 234, 217, 240, 269, 263, 266, 254, 277, 279, 313, 284, 289, 264, 249, 239, 242, 252, 246, 267, 237, 230, 247, 235, 210, 254, 304, 286, 317, 310, 275, 245, 270, 308, 314, 312, 334, 389, 347, 345, 361, 337, 246, 237, 232, 205, 182},
{153, 169, 179, 185, 149, 149, 152, 165, 163, 190, 185, 170, 156, 156, 134, 134, 135, 127, 140, 154, 153, 151, 151, 141, 127, 142, 166, 177, 171, 172, 177, 162, 150, 158, 168, 155, 153, 158, 152, 143, 150, 150, 171, 171, 157, 171, 168, 139, 146, 173, 174, 174, 169, 161, 165, 139, 153, 163, 175, 182, 181, 175, 185, 192, 159, 159, 170, 151, 139, 136, 144, 152, 163, 152, 155, 164, 156, 142, 147, 172, 161, 168, 172, 170, 147, 164, 230, 240, 240, 271, 310, 264, 262, 269, 251, 184, 179, 167, 176, 156},
{40, 44, 51, 51, 44, 48, 50, 50, 51, 58, 57, 54, 47, 48, 46, 50, 50, 48, 52, 52, 48, 48, 51, 55, 54, 58, 63, 67, 60, 64, 63, 60, 55, 59, 57, 57, 57, 60, 56, 56, 56, 58, 68, 73, 71, 73, 71, 60, 52, 57, 53, 59, 59, 66, 63, 62, 65, 66, 63, 66, 68, 60, 61, 60, 54, 54, 58, 58, 56, 54, 52, 54, 58, 60, 62, 65, 66, 65, 64, 69, 66, 59, 53, 57, 50, 54, 73, 80, 77, 82, 89, 73, 73, 76, 73, 62, 67, 59, 56, 52},
{28, 28, 29, 29, 29, 33, 32, 33, 36, 37, 35, 34, 33, 32, 31, 34, 34, 35, 38, 40, 39, 40, 42, 46, 45, 49, 51, 51, 48, 52, 50, 50, 50, 47, 44, 45, 45, 49, 50, 51, 48, 47, 51, 53, 56, 58, 62, 54, 52, 49, 46, 46, 49, 51, 52, 52, 68, 70, 79, 77, 85, 69, 66, 65, 66, 58, 58, 59, 53, 57, 56, 60, 59, 52, 46, 48, 53, 58, 58, 59, 58, 50, 43, 46, 47, 46, 54, 61, 62, 63, 69, 62, 61, 57, 59, 51, 53, 46, 58, 53},
{28, 25, 26, 27, 25, 26, 28, 30, 31, 32, 31, 29, 27, 26, 24, 27, 27, 30, 31, 34, 31, 34, 32, 32, 31, 33, 30, 33, 33, 34, 38, 39, 37, 38, 41, 39, 41, 41, 41, 46, 44, 45, 49, 47, 43, 45, 46, 41, 44, 41, 40, 38, 37, 38, 39, 37, 44, 46, 44, 41, 43, 35, 34, 37, 37, 37, 38, 37, 35, 34, 32, 33, 32, 30, 31, 32, 33, 35, 35, 34, 34, 35, 33, 35, 37, 38, 36, 37, 42, 41, 43, 41, 45, 42, 49, 49, 47, 44, 44, 42}}

// 18 Reading of the 8 sensors, 100 samples per sensor
{{30, 29, 30, 30, 29, 29, 30, 32, 32, 33, 34, 38, 39, 46, 46, 47, 58, 68, 106, 169, 174, 171, 172, 153, 91, 88, 85, 77, 72, 55, 50, 54, 51, 49, 57, 53, 54, 60, 67, 69, 69, 67, 63, 60, 67, 75, 80, 79, 78, 67, 71, 72, 72, 71, 69, 56, 46, 46, 42, 43, 44, 44, 46, 54, 55, 51, 51, 62, 64, 73, 78, 81, 76, 70, 62, 58, 56, 55, 55, 54, 55, 54, 49, 48, 46, 44, 42, 46, 51, 49, 52, 58, 60, 57, 55, 56, 56, 48, 48, 52},
{91, 88, 85, 83, 86, 72, 74, 80, 84, 85, 97, 103, 108, 109, 106, 105, 122, 135, 178, 237, 251, 247, 240, 216, 161, 154, 143, 153, 149, 138, 138, 140, 130, 128, 167, 160, 158, 158, 164, 152, 159, 162, 159, 149, 121, 103, 128, 128, 138, 148, 168, 160, 159, 154, 142, 112, 90, 89, 82, 99, 117, 119, 120, 142, 143, 131, 129, 132, 114, 102, 126, 132, 150, 147, 153, 146, 141, 125, 126, 121, 116, 124, 122, 127, 129, 121, 132, 130, 131, 128, 132, 116, 121, 118, 118, 110, 120, 111, 103, 93},
{271, 269, 221, 240, 231, 186, 237, 283, 280, 297, 326, 317, 293, 301, 289, 279, 265, 287, 317, 400, 423, 475, 503, 493, 429, 474, 416, 429, 419, 428, 406, 412, 340, 352, 421, 359, 354, 370, 392, 382, 383, 402, 396, 358, 324, 321, 313, 402, 396, 404, 444, 436, 401, 406, 380, 364, 359, 322, 324, 335, 340, 359, 346, 347, 339, 281, 263, 291, 271, 246, 301, 349, 343, 343, 345, 326, 287, 272, 323, 349, 373, 369, 353, 357, 332, 312, 334, 360, 325, 334, 322, 290, 278, 303, 297, 289, 278, 268, 245, 241},
{159, 143, 169, 161, 158, 172, 176, 183, 185, 195, 213, 230, 204, 208, 209, 178, 175, 198, 206, 203, 203, 191, 170, 167, 179, 214, 216, 220, 207, 206, 171, 187, 189, 191, 184, 204, 176, 178, 178, 182, 153, 155, 135, 157, 178, 199, 221, 226, 215, 210, 209, 199, 222, 237, 215, 199, 199, 189, 166, 173, 185, 189, 182, 182, 179, 179, 191, 205, 197, 194, 191, 236, 218, 224, 230, 240, 182, 203, 211, 214, 200, 201, 186, 174, 169, 168, 179, 180, 185, 187, 187, 192, 186, 191, 209, 205, 182, 227, 285, 310},
{133, 125, 151, 156, 159, 169, 174, 143, 131, 146, 149, 140, 142, 145, 131, 121, 122, 129, 141, 137, 146, 155, 154, 136, 152, 162, 158, 160, 167, 170, 150, 154, 150, 157, 140, 142, 129, 129, 114, 118, 115, 112, 100, 115, 127, 138, 135, 148, 139, 128, 120, 139, 138, 137, 130, 121, 108, 99, 90, 97, 101, 96, 93, 94, 97, 93, 100, 110, 108, 115, 110, 171, 173, 178, 170, 180, 155, 157, 157, 162, 158, 130, 116, 109, 126, 128, 140, 140, 151, 140, 132, 123, 122, 116, 109, 109, 89, 107, 105, 108},
{41, 38, 45, 55, 57, 57, 59, 54, 47, 50, 53, 55, 55, 53, 49, 49, 47, 49, 50, 52, 51, 48, 48, 50, 55, 57, 67, 68, 68, 66, 68, 58, 57, 53, 55, 49, 50, 49, 49, 42, 46, 46, 49, 53, 56, 54, 52, 53, 48, 47, 47, 49, 46, 47, 49, 47, 47, 46, 49, 48, 46, 43, 45, 41, 39, 38, 42, 45, 47, 47, 47, 65, 70, 70, 73, 75, 60, 57, 54, 51, 49, 53, 47, 45, 45, 49, 49, 56, 57, 56, 54, 48, 44, 46, 47, 44, 46, 41, 40, 39},
{27, 27, 32, 39, 39, 39, 45, 43, 39, 44, 47, 45, 44, 46, 42, 39, 36, 36, 35, 38, 58, 78, 94, 102, 104, 112, 107, 94, 88, 84, 61, 54, 62, 60, 70, 70, 68, 62, 60, 49, 88, 92, 93, 93, 96, 65, 56, 53, 53, 51, 47, 46, 46, 48, 42, 40, 38, 40, 42, 47, 52, 53, 51, 47, 41, 35, 34, 41, 47, 51, 51, 56, 56, 51, 52, 56, 53, 50, 50, 45, 43, 48, 48, 47, 48, 46, 44, 48, 50, 55, 57, 56, 55, 54, 53, 56, 67, 67, 69, 68},
{24, 22, 25, 26, 25, 25, 33, 32, 35, 35, 36, 32, 30, 28, 28, 28, 26, 27, 32, 62, 101, 138, 148, 151, 146, 149, 123, 111, 109, 103, 61, 82, 93, 90, 98, 100, 90, 83, 83, 77, 139, 143, 143, 143, 151, 101, 85, 82, 81, 69, 62, 57, 55, 52, 43, 34, 34, 34, 34, 38, 36, 37, 38, 37, 35, 30, 30, 35, 38, 39, 40, 41, 37, 35, 36, 39, 38, 38, 38, 34, 34, 38, 39, 38, 38, 36, 32, 31, 32, 32, 36, 38, 38, 40, 38, 54, 72, 77, 83, 90}}

// 19 Reading of the 8 sensors, 100 samples per sensor
{{42, 42, 46, 44, 41, 45, 42, 46, 48, 51, 53, 56, 51, 53, 51, 46, 44, 43, 38, 35, 34, 31, 37, 38, 43, 41, 44, 42, 43, 41, 55, 54, 58, 59, 58, 49, 50, 52, 49, 49, 47, 48, 39, 42, 43, 45, 41, 42, 40, 39, 35, 35, 34, 36, 32, 33, 33, 34, 33, 33, 34, 31, 30, 37, 40, 44, 45, 49, 44, 44, 42, 41, 39, 39, 35, 32, 30, 29, 29, 31, 33, 36, 37, 35, 33, 31, 30, 26, 30, 30, 32, 30, 30, 32, 32, 31, 33, 35, 31, 30},
{89, 104, 112, 108, 105, 105, 89, 89, 97, 90, 98, 117, 112, 125, 139, 131, 121, 120, 100, 87, 82, 79, 84, 81, 88, 85, 80, 76, 81, 81, 121, 122, 121, 123, 123, 95, 94, 104, 101, 96, 91, 100, 86, 91, 88, 90, 79, 76, 71, 70, 73, 86, 92, 93, 92, 84, 78, 76, 74, 69, 67, 55, 55, 69, 83, 100, 105, 110, 103, 100, 98, 93, 89, 88, 88, 70, 72, 70, 68, 58, 67, 77, 76, 77, 76, 70, 63, 57, 61, 63, 67, 58, 63, 55, 53, 53, 62, 64, 65, 67},
{391, 420, 484, 513, 508, 547, 514, 517, 532, 529, 504, 561, 510, 542, 537, 511, 458, 457, 376, 329, 331, 324, 377, 367, 370, 366, 370, 324, 322, 407, 502, 478, 488, 486, 516, 450, 465, 498, 517, 459, 427, 467, 428, 439, 424, 432, 370, 345, 302, 282, 307, 346, 385, 397, 400, 351, 356, 346, 340, 327, 346, 338, 322, 368, 474, 499, 523, 519, 487, 385, 423, 372, 428, 419, 451, 369, 405, 346, 375, 331, 354, 384, 377, 354, 340, 318, 271, 269, 258, 267, 292, 234, 256, 265, 271, 267, 288, 274, 271, 273},
{171, 172, 174, 203, 238, 250, 252, 247, 245, 224, 212, 212, 255, 247, 280, 276, 279, 247, 244, 180, 189, 188, 215, 196, 206, 203, 204, 178, 184, 188, 224, 227, 251, 250, 246, 265, 272, 261, 271, 272, 227, 221, 198, 191, 174, 163, 131, 130, 118, 118, 133, 149, 165, 171, 191, 174, 168, 159, 162, 148, 158, 161, 170, 187, 203, 213, 216, 205, 187, 183, 191, 197, 205, 209, 192, 184, 178, 166, 163, 177, 163, 159, 165, 190, 174, 194, 205, 199, 179, 177, 157, 136, 164, 153, 159, 174, 198, 175, 180, 177},
{127, 104, 101, 79, 161, 184, 194, 199, 229, 199, 183, 183, 216, 184, 174, 172, 162, 129, 148, 137, 136, 137, 132, 111, 113, 112, 112, 118, 121, 124, 156, 165, 181, 188, 186, 179, 198, 187, 181, 183, 164, 131, 103, 94, 82, 86, 85, 105, 125, 132, 131, 128, 127, 113, 115, 114, 125, 120, 124, 130, 135, 122, 111, 137, 134, 138, 149, 171, 157, 157, 177, 179, 162, 152, 144, 113, 106, 118, 114, 131, 146, 156, 150, 159, 150, 135, 125, 117, 115, 119, 130, 128, 161, 155, 161, 156, 162, 132, 133, 124},
{52, 44, 43, 42, 62, 67, 66, 68, 72, 66, 64, 65, 67, 66, 55, 52, 48, 48, 46, 50, 47, 54, 51, 53, 50, 49, 48, 50, 47, 52, 57, 53, 54, 61, 55, 54, 59, 61, 55, 58, 55, 49, 45, 44, 42, 46, 45, 48, 52, 51, 48, 48, 41, 38, 42, 42, 50, 51, 51, 50, 49, 39, 37, 49, 52, 59, 62, 73, 67, 67, 67, 67, 58, 55, 50, 45, 41, 42, 43, 46, 48, 50, 46, 46, 42, 39, 39, 36, 40, 40, 43, 46, 53, 50, 56, 53, 53, 49, 48, 45},
{42, 35, 36, 38, 62, 67, 69, 71, 74, 57, 55, 55, 52, 54, 57, 52, 48, 52, 47, 46, 51, 56, 58, 56, 55, 55, 53, 52, 74, 81, 79, 76, 90, 82, 83, 82, 86, 68, 56, 45, 44, 38, 43, 44, 43, 48, 50, 46, 49, 47, 40, 37, 35, 30, 34, 37, 40, 42, 44, 40, 37, 37, 36, 40, 45, 49, 47, 50, 45, 40, 37, 39, 36, 37, 39, 37, 36, 37, 34, 41, 43, 44, 42, 43, 36, 37, 35, 35, 35, 34, 33, 37, 36, 35, 36, 34, 37, 40, 39, 41},
{31, 29, 31, 30, 32, 37, 39, 41, 42, 41, 39, 39, 37, 56, 74, 78, 78, 79, 72, 65, 71, 74, 78, 74, 64, 50, 61, 65, 75, 79, 83, 75, 98, 102, 101, 100, 105, 76, 60, 55, 50, 34, 33, 33, 34, 37, 37, 37, 37, 38, 33, 32, 31, 30, 28, 29, 30, 32, 31, 32, 32, 30, 28, 32, 33, 35, 38, 43, 41, 41, 40, 38, 34, 36, 36, 35, 33, 35, 33, 34, 33, 34, 31, 32, 28, 29, 30, 31, 32, 31, 32, 31, 29, 29, 30, 26, 30, 34, 32, 33}}

// 20 Reading of the 8 sensors, 100 samples per sensor
{{37, 48, 53, 52, 56, 55, 58, 61, 64, 64, 65, 61, 55, 52, 56, 53, 56, 64, 65, 62, 64, 60, 65, 69, 70, 86, 86, 78, 77, 76, 59, 60, 60, 60, 58, 62, 65, 66, 65, 64, 63, 57, 56, 54, 55, 55, 63, 62, 61, 68, 75, 96, 99, 102, 99, 91, 75, 74, 70, 70, 72, 58, 61, 89, 91, 95, 96, 94, 71, 65, 60, 69, 64, 61, 66, 64, 58, 58, 62, 59, 62, 67, 72, 72, 71, 77, 69, 64, 61, 72, 69, 73, 74, 80, 71, 71, 65, 69, 60, 60},
{101, 122, 173, 177, 175, 178, 177, 152, 146, 155, 158, 144, 119, 123, 115, 109, 131, 165, 163, 175, 174, 164, 136, 156, 138, 161, 153, 146, 131, 149, 128, 134, 138, 142, 128, 132, 132, 141, 143, 144, 157, 151, 142, 143, 139, 124, 140, 139, 122, 124, 126, 165, 192, 199, 203, 194, 152, 137, 125, 123, 123, 122, 108, 138, 130, 141, 139, 139, 118, 128, 141, 164, 160, 158, 165, 147, 120, 118, 128, 115, 125, 139, 144, 135, 125, 116, 112, 102, 114, 135, 127, 133, 137, 146, 131, 144, 128, 137, 115, 124},
{237, 235, 295, 303, 325, 338, 357, 329, 326, 324, 296, 293, 309, 316, 365, 399, 382, 399, 400, 365, 353, 394, 367, 386, 373, 369, 322, 330, 347, 538, 590, 598, 591, 606, 481, 472, 463, 487, 440, 402, 400, 405, 386, 394, 391, 304, 329, 319, 336, 404, 444, 427, 445, 481, 449, 475, 493, 549, 509, 502, 471, 457, 374, 350, 373, 343, 335, 322, 344, 419, 419, 436, 476, 519, 433, 454, 444, 418, 410, 442, 448, 481, 524, 493, 459, 460, 484, 454, 483, 491, 466, 417, 393, 354, 346, 395, 370, 419, 425, 464},
{287, 382, 406, 387, 389, 369, 289, 289, 300, 281, 300, 285, 242, 229, 225, 229, 242, 257, 284, 305, 384, 382, 400, 380, 364, 243, 248, 219, 237, 302, 327, 315, 328, 320, 291, 324, 323, 310, 305, 298, 251, 251, 262, 268, 249, 238, 244, 253, 254, 276, 289, 307, 303, 308, 309, 311, 342, 328, 323, 302, 280, 197, 183, 215, 208, 209, 212, 233, 194, 226, 303, 354, 350, 351, 343, 303, 293, 293, 321, 312, 283, 227, 301, 284, 280, 290, 320, 264, 267, 274, 275, 265, 252, 236, 242, 258, 234, 250, 255, 331},
{298, 323, 331, 318, 341, 273, 229, 240, 236, 187, 179, 185, 175, 184, 186, 214, 230, 229, 215, 218, 229, 214, 207, 207, 200, 156, 136, 120, 124, 123, 124, 146, 195, 212, 224, 250, 245, 209, 192, 193, 166, 162, 168, 175, 170, 154, 161, 150, 153, 185, 195, 204, 243, 235, 219, 225, 233, 209, 210, 203, 187, 178, 168, 167, 150, 151, 121, 142, 143, 157, 207, 239, 228, 226, 252, 216, 183, 175, 222, 193, 191, 190, 201, 162, 150, 156, 165, 151, 137, 141, 131, 132, 139, 142, 140, 148, 141, 184, 185, 194},
{70, 80, 81, 82, 91, 82, 77, 81, 86, 75, 73, 69, 68, 69, 70, 69, 74, 73, 64, 73, 85, 85, 84, 86, 75, 63, 57, 54, 51, 50, 47, 49, 66, 68, 75, 84, 86, 72, 67, 62, 50, 46, 55, 57, 59, 56, 61, 57, 61, 82, 84, 89, 95, 94, 74, 75, 70, 61, 61, 67, 72, 70, 69, 69, 65, 56, 53, 60, 64, 64, 78, 82, 84, 79, 91, 85, 81, 74, 86, 72, 69, 69, 69, 64, 61, 61, 69, 72, 64, 63, 59, 50, 48, 48, 50, 49, 50, 57, 61, 66},
{42, 47, 52, 52, 57, 55, 57, 54, 59, 54, 55, 51, 51, 47, 54, 63, 68, 67, 67, 65, 65, 60, 68, 73, 74, 71, 72, 65, 58, 55, 47, 47, 57, 56, 53, 58, 57, 45, 45, 42, 40, 48, 50, 49, 50, 49, 48, 45, 51, 61, 63, 66, 71, 69, 67, 67, 64, 62, 60, 58, 64, 59, 58, 57, 57, 47, 49, 55, 58, 50, 56, 55, 52, 48, 58, 59, 57, 55, 63, 66, 68, 72, 83, 82, 77, 72, 77, 71, 69, 73, 73, 69, 63, 58, 57, 64, 64, 68, 72, 67},
{30, 39, 43, 44, 49, 49, 43, 39, 40, 35, 38, 39, 38, 34, 34, 39, 40, 43, 54, 75, 75, 77, 80, 77, 91, 94, 94, 93, 95, 66, 56, 56, 54, 45, 40, 49, 50, 48, 50, 49, 40, 36, 38, 37, 39, 37, 44, 45, 44, 53, 55, 60, 60, 63, 57, 55, 47, 44, 40, 40, 42, 38, 37, 41, 41, 38, 42, 44, 41, 39, 39, 37, 39, 38, 41, 46, 45, 50, 120, 157, 166, 173, 184, 153, 135, 127, 120, 104, 99, 77, 70, 66, 60, 54, 42, 42, 41, 42, 54, 70}}

// 21 Reading of the 8 sensors, 100 samples per sensor
{{46, 49, 46, 43, 39, 40, 39, 41, 43, 56, 61, 65, 64, 62, 58, 53, 50, 58, 56, 50, 51, 53, 46, 51, 52, 48, 45, 50, 46, 43, 44, 43, 37, 42, 43, 44, 44, 43, 48, 49, 51, 51, 49, 41, 39, 40, 44, 46, 48, 47, 48, 45, 45, 47, 49, 46, 49, 53, 48, 49, 55, 53, 48, 55, 53, 53, 52, 52, 48, 46, 41, 42, 50, 53, 54, 57, 54, 49, 46, 46, 47, 48, 49, 50, 52, 49, 47, 50, 53, 51, 49, 60, 58, 56, 56, 61, 52, 52, 50, 54},
{103, 104, 95, 84, 79, 82, 74, 81, 82, 103, 119, 138, 137, 134, 131, 136, 118, 127, 125, 112, 96, 94, 92, 101, 114, 107, 107, 110, 110, 95, 95, 102, 88, 83, 80, 82, 91, 96, 109, 112, 119, 105, 103, 88, 89, 75, 94, 94, 102, 118, 127, 121, 122, 120, 112, 112, 117, 129, 125, 124, 124, 113, 99, 115, 115, 122, 131, 133, 124, 116, 139, 168, 195, 203, 220, 202, 176, 153, 136, 119, 139, 133, 125, 132, 139, 124, 130, 133, 124, 114, 100, 104, 111, 123, 116, 132, 143, 130, 125, 134},
{496, 489, 485, 411, 331, 322, 308, 248, 246, 240, 232, 213, 232, 226, 209, 245, 290, 281, 278, 299, 289, 242, 247, 245, 238, 217, 214, 207, 236, 231, 207, 222, 231, 201, 200, 209, 209, 203, 235, 260, 276, 267, 280, 276, 277, 252, 248, 254, 271, 253, 302, 342, 320, 287, 304, 269, 234, 270, 269, 338, 341, 348, 330, 364, 268, 271, 257, 259, 212, 227, 259, 297, 317, 355, 359, 344, 377, 371, 356, 360, 357, 278, 280, 267, 252, 234, 257, 221, 222, 243, 247, 238, 257, 248, 211, 225, 217, 218, 217, 255},
{184, 253, 264, 299, 334, 350, 302, 301, 294, 294, 319, 362, 372, 351, 321, 377, 353, 360, 380, 397, 330, 327, 331, 320, 306, 328, 348, 338, 340, 341, 318, 291, 290, 311, 360, 354, 368, 362, 351, 340, 343, 345, 381, 368, 362, 356, 356, 340, 371, 395, 441, 474, 463, 448, 412, 351, 331, 394, 432, 448, 485, 463, 415, 365, 376, 380, 361, 358, 398, 363, 350, 362, 354, 321, 331, 320, 329, 355, 356, 367, 375, 352, 318, 288, 252, 204, 256, 260, 287, 305, 339, 319, 302, 291, 297, 297, 317, 373, 427, 457},
{140, 130, 142, 157, 155, 174, 177, 168, 188, 190, 198, 225, 245, 231, 228, 262, 241, 231, 262, 293, 265, 268, 282, 262, 229, 251, 259, 234, 217, 235, 191, 174, 164, 183, 177, 184, 200, 211, 219, 238, 261, 260, 264, 245, 215, 194, 183, 172, 213, 223, 238, 258, 256, 229, 219, 182, 163, 186, 185, 211, 237, 242, 273, 267, 281, 277, 266, 238, 282, 264, 275, 275, 260, 242, 235, 241, 234, 237, 222, 214, 216, 223, 219, 218, 232, 207, 229, 235, 235, 220, 219, 201, 187, 193, 258, 257, 263, 293, 310, 274},
{58, 56, 61, 56, 57, 61, 64, 62, 67, 69, 72, 76, 86, 86, 84, 89, 89, 81, 84, 86, 78, 74, 74, 67, 63, 59, 65, 58, 58, 62, 64, 60, 63, 73, 72, 72, 72, 71, 60, 66, 72, 78, 89, 87, 82, 76, 75, 61, 70, 68, 74, 74, 72, 70, 74, 74, 90, 100, 102, 108, 105, 93, 97, 93, 102, 109, 112, 117, 120, 111, 105, 97, 81, 89, 104, 111, 111, 114, 109, 94, 86, 90, 85, 86, 86, 93, 101, 106, 97, 96, 89, 87, 91, 115, 143, 145, 144, 139, 128, 100},
{55, 76, 83, 83, 83, 83, 64, 53, 49, 53, 49, 55, 57, 61, 56, 57, 55, 56, 51, 50, 48, 53, 51, 50, 51, 52, 57, 56, 58, 60, 62, 52, 58, 61, 60, 62, 65, 60, 61, 70, 81, 87, 106, 117, 122, 115, 125, 133, 126, 129, 136, 126, 102, 98, 85, 70, 123, 131, 135, 138, 142, 106, 103, 115, 120, 149, 146, 149, 151, 147, 110, 123, 121, 128, 139, 148, 138, 137, 126, 121, 114, 117, 114, 112, 103, 111, 112, 106, 120, 125, 117, 134, 157, 163, 170, 192, 180, 169, 156, 146},
{34, 36, 34, 33, 32, 35, 34, 35, 35, 40, 36, 38, 38, 37, 38, 41, 41, 43, 44, 38, 37, 37, 31, 32, 35, 34, 39, 41, 39, 38, 39, 34, 36, 41, 45, 45, 44, 40, 38, 36, 36, 38, 40, 37, 36, 35, 37, 40, 40, 39, 41, 39, 35, 33, 33, 31, 34, 39, 39, 39, 40, 37, 34, 42, 41, 45, 46, 50, 47, 48, 43, 47, 49, 47, 47, 47, 41, 37, 35, 33, 32, 34, 32, 33, 37, 39, 39, 40, 45, 42, 41, 48, 51, 48, 51, 54, 50, 49, 47, 46}}

// 22 Reading of the 8 sensors, 100 samples per sensor
{{53, 53, 58, 52, 54, 55, 51, 45, 49, 46, 40, 44, 43, 38, 39, 40, 39, 40, 41, 41, 45, 44, 46, 47, 45, 39, 36, 35, 34, 34, 31, 31, 26, 31, 31, 33, 35, 40, 39, 38, 38, 47, 51, 50, 52, 53, 45, 39, 41, 38, 37, 36, 35, 33, 40, 41, 40, 41, 43, 40, 39, 40, 39, 38, 35, 32, 34, 34, 31, 33, 36, 35, 35, 32, 34, 32, 30, 30, 35, 35, 36, 36, 40, 39, 37, 37, 36, 36, 37, 40, 40, 43, 46, 49, 52, 56, 60, 55, 51, 53},
{130, 121, 133, 124, 125, 107, 105, 97, 116, 111, 102, 116, 115, 96, 95, 98, 82, 84, 81, 80, 88, 97, 102, 102, 102, 98, 88, 82, 81, 81, 75, 72, 68, 69, 69, 68, 82, 79, 82, 81, 86, 100, 111, 117, 140, 139, 127, 120, 120, 89, 90, 92, 87, 76, 84, 87, 80, 83, 82, 92, 85, 84, 84, 86, 68, 65, 66, 72, 70, 69, 77, 75, 70, 67, 70, 74, 82, 78, 78, 82, 78, 74, 74, 77, 81, 80, 77, 76, 76, 72, 74, 72, 102, 125, 129, 128, 139, 124, 102, 103},
{418, 377, 337, 281, 338, 342, 351, 357, 365, 321, 275, 276, 263, 256, 274, 291, 315, 361, 392, 362, 401, 405, 378, 349, 355, 321, 269, 239, 279, 296, 275, 270, 265, 245, 235, 238, 252, 259, 270, 266, 324, 406, 472, 472, 525, 498, 425, 368, 377, 296, 296, 317, 296, 268, 281, 285, 266, 258, 287, 301, 280, 289, 288, 320, 306, 313, 306, 316, 238, 222, 214, 232, 231, 204, 205, 206, 212, 203, 214, 246, 262, 235, 237, 241, 229, 207, 209, 207, 209, 188, 200, 218, 231, 225, 247, 259, 281, 276, 294, 274},
{276, 262, 245, 249, 256, 330, 334, 312, 291, 295, 216, 236, 245, 246, 230, 223, 220, 251, 244, 236, 258, 270, 261, 270, 271, 242, 205, 190, 229, 227, 232, 221, 206, 152, 159, 152, 173, 183, 181, 176, 183, 231, 248, 248, 255, 267, 223, 213, 234, 225, 224, 221, 245, 262, 292, 287, 293, 284, 250, 210, 198, 184, 159, 172, 172, 175, 160, 142, 168, 202, 221, 227, 233, 214, 219, 195, 196, 200, 187, 154, 163, 157, 151, 139, 204, 211, 217, 223, 253, 219, 209, 240, 248, 230, 217, 223, 181, 159, 215, 223},
{217, 191, 201, 182, 188, 206, 211, 199, 205, 202, 181, 181, 175, 168, 150, 137, 147, 177, 183, 185, 214, 224, 209, 209, 211, 183, 174, 162, 168, 162, 160, 139, 136, 123, 125, 131, 144, 162, 156, 150, 148, 183, 174, 174, 178, 184, 138, 149, 158, 154, 160, 166, 181, 204, 217, 208, 208, 207, 181, 175, 169, 166, 140, 163, 153, 158, 148, 133, 111, 116, 133, 141, 148, 142, 165, 149, 151, 156, 152, 138, 154, 144, 146, 140, 194, 193, 198, 205, 210, 164, 153, 162, 153, 154, 142, 149, 135, 132, 137, 158},
{73, 73, 82, 76, 82, 84, 83, 82, 83, 75, 65, 68, 58, 57, 56, 58, 58, 59, 62, 65, 69, 67, 69, 66, 64, 59, 58, 56, 58, 56, 54, 52, 45, 47, 43, 48, 48, 61, 68, 67, 65, 78, 75, 69, 70, 70, 54, 49, 52, 51, 53, 58, 57, 56, 59, 61, 59, 69, 65, 65, 62, 59, 52, 54, 51, 51, 51, 42, 43, 46, 50, 51, 59, 59, 60, 55, 54, 47, 51, 53, 59, 63, 64, 61, 64, 64, 59, 68, 66, 58, 56, 56, 49, 51, 56, 57, 58, 58, 58, 63},
{48, 54, 64, 62, 65, 68, 62, 53, 53, 50, 45, 47, 45, 44, 44, 44, 49, 49, 50, 50, 56, 51, 51, 54, 54, 48, 45, 47, 45, 50, 48, 48, 46, 47, 41, 42, 42, 53, 62, 61, 61, 63, 59, 49, 49, 48, 45, 42, 42, 39, 41, 43, 40, 37, 41, 40, 35, 44, 44, 48, 48, 47, 43, 42, 38, 38, 42, 40, 43, 43, 42, 40, 44, 44, 42, 41, 39, 37, 39, 39, 39, 44, 46, 47, 48, 50, 46, 48, 43, 39, 37, 38, 40, 43, 47, 69, 69, 69, 74, 76},
{40, 41, 45, 44, 46, 47, 44, 37, 38, 38, 33, 33, 35, 32, 31, 31, 35, 33, 34, 35, 38, 36, 37, 39, 36, 31, 31, 28, 27, 30, 30, 30, 29, 31, 28, 28, 31, 37, 39, 39, 41, 44, 44, 42, 43, 42, 38, 35, 35, 31, 31, 31, 29, 27, 30, 29, 26, 34, 35, 37, 37, 36, 30, 31, 28, 27, 29, 29, 33, 33, 35, 33, 33, 28, 28, 26, 26, 28, 30, 30, 30, 34, 33, 32, 31, 32, 29, 32, 33, 32, 29, 28, 26, 25, 28, 32, 38, 39, 43, 45}}

// 23 Reading of the 8 sensors, 100 samples per sensor
{{30, 31, 32, 30, 28, 28, 25, 26, 28, 29, 30, 30, 33, 35, 36, 35, 35, 29, 28, 26, 27, 26, 27, 26, 32, 31, 34, 36, 36, 33, 34, 31, 30, 29, 31, 29, 31, 37, 36, 33, 35, 34, 30, 34, 33, 30, 39, 38, 37, 40, 41, 33, 31, 29, 26, 28, 27, 29, 30, 33, 35, 34, 37, 39, 38, 39, 44, 42, 42, 41, 37, 32, 40, 38, 39, 41, 40, 39, 44, 46, 43, 49, 46, 42, 42, 44, 36, 36, 37, 37, 42, 41, 46, 48, 47, 45, 48, 44, 45, 41},
{53, 53, 53, 54, 51, 58, 56, 58, 60, 65, 69, 70, 72, 74, 85, 82, 82, 79, 82, 65, 66, 64, 70, 73, 85, 86, 88, 88, 85, 79, 73, 74, 72, 69, 73, 75, 84, 89, 84, 78, 84, 73, 67, 70, 67, 58, 70, 77, 77, 77, 82, 76, 70, 77, 83, 88, 89, 85, 79, 87, 75, 72, 80, 83, 74, 78, 86, 81, 77, 75, 77, 73, 76, 73, 84, 84, 81, 86, 95, 94, 92, 116, 112, 124, 128, 125, 111, 117, 105, 109, 123, 115, 110, 109, 101, 93, 98, 96, 97, 82},
{177, 183, 176, 191, 202, 209, 210, 224, 200, 247, 278, 286, 293, 288, 259, 228, 213, 190, 185, 176, 164, 175, 203, 211, 225, 248, 256, 274, 269, 268, 249, 234, 205, 208, 203, 197, 209, 193, 189, 164, 173, 168, 176, 188, 203, 210, 227, 234, 220, 243, 248, 258, 262, 266, 249, 264, 236, 222, 237, 225, 186, 196, 208, 193, 184, 206, 205, 206, 239, 256, 247, 241, 228, 202, 194, 206, 238, 243, 245, 242, 237, 245, 254, 267, 297, 284, 270, 277, 266, 249, 280, 267, 249, 259, 252, 240, 243, 256, 238, 225},
{172, 166, 151, 126, 127, 172, 204, 218, 234, 252, 243, 251, 250, 242, 242, 230, 220, 209, 219, 222, 248, 232, 250, 240, 223, 210, 213, 227, 249, 238, 219, 212, 186, 160, 198, 206, 230, 238, 263, 242, 255, 243, 239, 220, 237, 229, 241, 254, 243, 226, 228, 218, 214, 227, 260, 284, 307, 297, 299, 271, 246, 202, 205, 194, 204, 195, 189, 189, 201, 210, 309, 326, 333, 319, 308, 209, 199, 185, 191, 207, 214, 207, 285, 325, 368, 372, 378, 345, 325, 310, 315, 311, 311, 295, 268, 249, 245, 204, 203, 189},
{149, 166, 166, 163, 143, 158, 164, 163, 169, 176, 177, 162, 162, 165, 168, 150, 164, 167, 171, 159, 178, 163, 162, 174, 186, 177, 184, 190, 209, 199, 194, 208, 205, 166, 175, 171, 166, 174, 184, 177, 192, 171, 173, 174, 191, 187, 207, 218, 212, 204, 195, 183, 170, 166, 163, 171, 198, 188, 198, 188, 174, 146, 153, 147, 150, 160, 151, 146, 139, 161, 233, 232, 252, 263, 256, 198, 199, 198, 192, 195, 193, 202, 183, 202, 228, 242, 249, 251, 231, 221, 206, 196, 208, 202, 175, 178, 178, 174, 183, 183},
{60, 64, 62, 61, 55, 53, 52, 54, 59, 61, 60, 58, 62, 60, 55, 59, 61, 54, 55, 58, 55, 53, 52, 50, 46, 42, 45, 48, 58, 61, 61, 57, 58, 52, 54, 55, 59, 56, 55, 48, 59, 57, 61, 61, 65, 55, 59, 67, 66, 66, 65, 59, 47, 45, 43, 53, 55, 57, 60, 62, 54, 54, 61, 61, 59, 59, 64, 55, 55, 56, 61, 57, 66, 68, 68, 66, 66, 66, 64, 62, 59, 65, 54, 59, 71, 72, 73, 77, 76, 69, 68, 64, 71, 65, 61, 62, 59, 50, 52, 48},
{48, 49, 52, 52, 51, 48, 46, 45, 44, 40, 40, 41, 45, 44, 41, 47, 49, 43, 41, 41, 40, 34, 35, 35, 39, 33, 35, 35, 37, 37, 36, 34, 35, 32, 28, 31, 33, 33, 34, 34, 38, 41, 43, 46, 45, 42, 39, 38, 41, 44, 45, 46, 48, 46, 43, 46, 46, 52, 51, 56, 57, 53, 49, 45, 44, 43, 53, 50, 53, 53, 49, 42, 48, 48, 48, 54, 55, 55, 60, 62, 56, 61, 56, 50, 48, 51, 46, 45, 44, 50, 51, 49, 53, 52, 44, 43, 41, 36, 38, 39},
{31, 30, 32, 32, 30, 31, 30, 30, 29, 29, 27, 28, 29, 30, 28, 31, 30, 27, 27, 26, 27, 25, 26, 27, 28, 25, 27, 27, 23, 27, 28, 27, 26, 25, 23, 23, 24, 25, 24, 23, 28, 28, 30, 35, 37, 33, 39, 40, 40, 39, 40, 34, 31, 29, 28, 30, 31, 32, 33, 34, 34, 32, 31, 29, 31, 33, 38, 38, 43, 41, 38, 37, 40, 36, 39, 42, 41, 41, 42, 43, 39, 41, 40, 37, 36, 36, 31, 28, 31, 33, 34, 35, 41, 39, 35, 34, 33, 27, 25, 25}}

// 24 Reading of the 8 sensors, 100 samples per sensor
{{41, 40, 40, 38, 39, 41, 38, 38, 36, 39, 34, 37, 38, 38, 36, 40, 41, 43, 43, 73, 77, 78, 78, 79, 56, 49, 46, 48, 48, 47, 46, 45, 42, 40, 35, 35, 36, 37, 38, 38, 39, 39, 37, 43, 44, 47, 47, 48, 43, 41, 36, 38, 38, 37, 40, 52, 50, 51, 55, 55, 46, 46, 44, 41, 37, 36, 39, 39, 41, 41, 42, 41, 38, 35, 38, 39, 37, 39, 38, 37, 35, 37, 32, 35, 35, 35, 40, 43, 43, 43, 42, 39, 37, 35, 36, 37, 35, 37, 39, 37},
{125, 125, 130, 123, 120, 115, 109, 101, 80, 76, 69, 75, 83, 87, 85, 87, 87, 82, 83, 108, 112, 110, 111, 105, 96, 93, 100, 108, 117, 102, 103, 99, 86, 78, 84, 78, 80, 85, 81, 80, 87, 77, 78, 85, 88, 89, 93, 92, 99, 102, 99, 94, 102, 94, 88, 92, 100, 95, 100, 99, 92, 89, 94, 102, 102, 105, 102, 97, 81, 85, 88, 96, 94, 101, 102, 117, 114, 116, 123, 115, 104, 105, 99, 95, 100, 94, 96, 99, 88, 85, 85, 78, 74, 70, 73, 91, 90, 90, 95, 95},
{279, 279, 277, 248, 255, 256, 245, 256, 236, 243, 245, 242, 227, 245, 216, 213, 227, 261, 244, 267, 282, 279, 275, 299, 288, 269, 308, 281, 271, 285, 335, 302, 320, 312, 306, 266, 276, 275, 274, 257, 241, 233, 241, 269, 269, 287, 275, 261, 249, 280, 254, 257, 254, 293, 268, 272, 272, 254, 175, 175, 185, 166, 204, 230, 228, 226, 245, 227, 216, 233, 227, 227, 226, 229, 218, 233, 223, 244, 251, 258, 256, 283, 278, 305, 285, 283, 294, 288, 250, 267, 266, 240, 240, 245, 247, 278, 269, 273, 274, 271},
{235, 229, 230, 249, 387, 387, 381, 380, 377, 210, 239, 232, 236, 258, 265, 227, 241, 297, 264, 338, 344, 362, 314, 322, 280, 320, 348, 392, 416, 408, 412, 392, 357, 346, 366, 345, 343, 328, 314, 378, 375, 363, 387, 388, 292, 263, 266, 268, 254, 281, 285, 273, 259, 270, 245, 243, 246, 257, 288, 283, 281, 288, 275, 227, 216, 220, 231, 250, 254, 266, 269, 257, 250, 243, 231, 214, 218, 220, 231, 237, 266, 257, 261, 252, 249, 276, 302, 299, 305, 307, 272, 249, 242, 249, 255, 273, 262, 250, 236, 271},
{191, 199, 186, 188, 290, 288, 297, 309, 314, 211, 213, 202, 179, 191, 208, 192, 195, 217, 200, 200, 205, 212, 178, 175, 163, 154, 138, 168, 194, 200, 216, 216, 198, 179, 187, 190, 198, 191, 187, 235, 229, 243, 248, 254, 204, 193, 175, 174, 166, 147, 146, 130, 146, 146, 163, 161, 160, 151, 171, 163, 160, 184, 194, 175, 175, 176, 161, 151, 158, 155, 155, 150, 134, 135, 146, 144, 163, 175, 169, 158, 180, 161, 154, 162, 163, 169, 219, 224, 226, 248, 231, 181, 204, 195, 182, 190, 202, 200, 207, 214},
{58, 62, 58, 57, 84, 82, 80, 83, 85, 57, 54, 60, 55, 60, 71, 76, 73, 73, 70, 70, 65, 64, 64, 62, 53, 53, 54, 57, 68, 68, 69, 68, 64, 49, 53, 55, 55, 55, 56, 55, 53, 60, 64, 67, 63, 63, 60, 56, 53, 58, 58, 52, 58, 57, 50, 53, 54, 49, 51, 55, 55, 66, 69, 72, 71, 71, 65, 63, 60, 58, 54, 54, 47, 49, 58, 62, 63, 68, 65, 59, 57, 56, 48, 54, 53, 55, 72, 81, 86, 89, 87, 74, 73, 69, 68, 68, 71, 67, 64, 69},
{46, 48, 47, 49, 56, 54, 51, 47, 50, 40, 43, 45, 48, 47, 52, 53, 53, 53, 51, 60, 58, 57, 59, 65, 56, 54, 54, 52, 49, 51, 50, 51, 50, 42, 43, 46, 53, 53, 54, 51, 51, 44, 49, 53, 53, 51, 54, 51, 49, 51, 59, 57, 61, 58, 55, 50, 51, 47, 55, 58, 58, 71, 77, 77, 75, 75, 66, 62, 62, 66, 63, 65, 57, 52, 54, 58, 55, 64, 62, 58, 56, 54, 45, 53, 50, 52, 65, 95, 109, 125, 127, 122, 105, 90, 69, 67, 70, 66, 63, 61},
{31, 34, 35, 33, 33, 31, 27, 26, 28, 29, 31, 34, 36, 36, 37, 38, 37, 41, 39, 42, 39, 38, 35, 38, 33, 36, 38, 35, 33, 33, 30, 29, 29, 27, 28, 30, 34, 34, 35, 36, 35, 31, 35, 37, 39, 38, 37, 35, 35, 32, 35, 37, 36, 36, 35, 37, 35, 39, 41, 46, 45, 47, 46, 45, 42, 41, 40, 40, 40, 39, 38, 40, 35, 34, 34, 38, 34, 41, 40, 41, 38, 39, 31, 37, 33, 34, 37, 74, 93, 99, 109, 109, 89, 69, 62, 41, 46, 58, 60, 57}}

// 25 Reading of the 8 sensors, 100 samples per sensor
{{22, 25, 25, 27, 27, 29, 27, 30, 29, 30, 31, 31, 26, 30, 32, 31, 33, 35, 35, 36, 36, 34, 33, 28, 24, 24, 30, 32, 32, 32, 31, 27, 25, 25, 27, 25, 24, 25, 28, 31, 33, 34, 35, 34, 30, 28, 33, 33, 34, 39, 40, 35, 36, 33, 29, 28, 27, 27, 31, 30, 32, 34, 34, 31, 34, 30, 31, 31, 29, 27, 29, 26, 31, 31, 32, 31, 31, 26, 27, 28, 30, 30, 30, 34, 31, 30, 30, 34, 28, 28, 29, 27, 25, 29, 34, 34, 35, 35, 33, 29},
{35, 39, 40, 52, 53, 57, 56, 58, 47, 46, 46, 54, 51, 58, 63, 68, 65, 69, 65, 67, 61, 58, 55, 53, 52, 58, 73, 71, 72, 67, 71, 61, 62, 62, 65, 59, 57, 60, 69, 78, 81, 79, 76, 72, 59, 50, 59, 57, 56, 59, 62, 54, 55, 52, 51, 50, 49, 52, 61, 61, 60, 62, 63, 57, 53, 49, 53, 54, 48, 51, 55, 53, 54, 54, 60, 59, 58, 52, 55, 74, 78, 79, 80, 88, 76, 71, 66, 67, 55, 43, 54, 62, 65, 67, 73, 69, 64, 61, 61, 57},
{152, 165, 159, 213, 224, 232, 236, 239, 190, 190, 192, 206, 192, 194, 183, 192, 194, 228, 239, 250, 240, 217, 181, 146, 142, 164, 225, 224, 231, 238, 262, 251, 274, 272, 265, 233, 201, 173, 183, 242, 251, 237, 233, 260, 212, 192, 214, 227, 187, 179, 204, 189, 180, 212, 216, 197, 195, 187, 160, 137, 146, 142, 170, 180, 206, 213, 219, 205, 199, 196, 211, 206, 206, 203, 210, 198, 213, 205, 214, 200, 190, 182, 184, 183, 200, 189, 197, 211, 214, 210, 210, 226, 231, 218, 207, 210, 175, 144, 152, 138},
{118, 126, 119, 142, 152, 156, 161, 155, 138, 141, 145, 190, 202, 238, 246, 243, 228, 222, 214, 234, 253, 234, 239, 212, 189, 163, 178, 174, 188, 173, 204, 207, 212, 253, 255, 233, 222, 213, 160, 184, 174, 169, 169, 160, 120, 170, 172, 172, 180, 189, 159, 153, 158, 201, 213, 230, 245, 242, 205, 186, 160, 168, 172, 163, 188, 194, 186, 184, 191, 178, 188, 178, 176, 171, 178, 159, 160, 158, 184, 173, 175, 174, 171, 170, 180, 182, 193, 205, 204, 193, 203, 188, 186, 161, 171, 172, 168, 157, 154, 139},
{116, 125, 120, 126, 144, 137, 135, 147, 152, 143, 152, 184, 178, 193, 199, 189, 170, 170, 159, 183, 193, 183, 198, 192, 165, 150, 151, 114, 118, 118, 142, 135, 152, 202, 199, 185, 191, 182, 127, 133, 143, 140, 141, 140, 139, 148, 150, 159, 153, 161, 143, 136, 135, 183, 199, 221, 235, 233, 200, 175, 157, 156, 153, 154, 158, 148, 145, 144, 157, 161, 178, 176, 176, 166, 164, 142, 127, 133, 133, 126, 135, 142, 142, 147, 145, 137, 164, 153, 150, 151, 177, 151, 156, 145, 169, 169, 167, 170, 171, 149},
{38, 39, 42, 47, 50, 49, 47, 50, 49, 46, 45, 50, 48, 49, 54, 55, 50, 49, 51, 56, 58, 58, 60, 54, 48, 44, 46, 42, 43, 42, 50, 47, 48, 57, 55, 53, 55, 54, 48, 50, 50, 53, 54, 54, 55, 58, 57, 58, 56, 57, 53, 50, 55, 61, 62, 65, 66, 66, 63, 57, 52, 56, 54, 50, 54, 51, 47, 44, 51, 54, 56, 58, 60, 56, 50, 49, 47, 46, 48, 49, 50, 53, 51, 52, 53, 51, 53, 55, 52, 50, 54, 51, 49, 48, 50, 48, 45, 44, 42, 44},
{24, 32, 36, 36, 37, 40, 35, 32, 30, 30, 29, 28, 27, 31, 30, 33, 35, 34, 34, 35, 35, 35, 36, 33, 31, 29, 31, 31, 32, 33, 37, 36, 36, 36, 36, 35, 33, 34, 37, 37, 37, 42, 44, 43, 43, 41, 39, 37, 36, 40, 41, 40, 41, 50, 48, 48, 48, 46, 39, 40, 38, 39, 40, 37, 40, 39, 38, 37, 37, 35, 37, 38, 41, 40, 37, 35, 36, 36, 38, 39, 38, 37, 35, 34, 37, 41, 41, 43, 43, 40, 37, 33, 34, 34, 36, 35, 35, 34, 31, 32},
{22, 22, 25, 27, 27, 29, 25, 25, 23, 25, 23, 24, 24, 26, 26, 30, 29, 28, 28, 27, 23, 24, 23, 22, 21, 23, 24, 24, 24, 23, 21, 21, 21, 20, 23, 24, 22, 24, 26, 27, 28, 30, 30, 31, 32, 31, 31, 31, 31, 32, 31, 29, 30, 32, 29, 32, 32, 32, 27, 28, 27, 28, 29, 29, 31, 28, 27, 25, 26, 26, 27, 27, 28, 28, 26, 27, 27, 29, 29, 30, 29, 29, 26, 29, 28, 30, 29, 31, 29, 29, 27, 28, 25, 27, 29, 29, 29, 32, 30, 27}}

// 26 Reading of the 8 sensors, 100 samples per sensor
{{30, 32, 34, 34, 35, 32, 31, 33, 34, 40, 43, 43, 45, 47, 45, 51, 58, 57, 55, 53, 47, 40, 42, 53, 68, 105, 123, 122, 120, 113, 83, 54, 57, 54, 55, 54, 53, 50, 49, 47, 45, 41, 40, 42, 48, 48, 53, 57, 54, 49, 47, 42, 40, 39, 36, 38, 39, 36, 37, 40, 39, 37, 39, 50, 52, 54, 55, 55, 51, 50, 56, 57, 57, 51, 49, 45, 46, 44, 44, 45, 42, 37, 38, 38, 35, 34, 36, 37, 41, 45, 45, 59, 60, 55, 55, 54, 42, 40, 43, 45},
{74, 77, 81, 84, 84, 78, 77, 81, 83, 189, 201, 207, 209, 212, 139, 157, 162, 160, 151, 145, 113, 100, 117, 131, 142, 192, 227, 227, 226, 223, 181, 137, 131, 129, 121, 134, 134, 127, 118, 116, 111, 107, 108, 122, 134, 124, 137, 147, 136, 120, 113, 89, 78, 82, 85, 94, 99, 101, 100, 111, 113, 111, 106, 129, 125, 129, 135, 130, 120, 126, 131, 139, 142, 131, 122, 109, 92, 91, 89, 93, 96, 94, 99, 103, 100, 107, 105, 103, 106, 112, 106, 120, 119, 111, 100, 102, 94, 90, 101, 102},
{238, 229, 245, 227, 194, 222, 229, 222, 242, 279, 260, 256, 250, 258, 259, 261, 277, 297, 288, 247, 274, 274, 357, 349, 368, 396, 473, 461, 479, 471, 457, 378, 323, 292, 346, 368, 382, 404, 425, 383, 355, 329, 278, 262, 267, 233, 262, 304, 299, 288, 289, 255, 221, 230, 239, 275, 292, 318, 315, 318, 315, 298, 256, 283, 260, 229, 267, 283, 280, 295, 290, 288, 279, 232, 241, 234, 211, 252, 277, 285, 286, 278, 303, 314, 297, 299, 307, 236, 234, 248, 250, 244, 252, 209, 195, 288, 290, 290, 308, 315},
{248, 250, 267, 265, 190, 192, 196, 176, 180, 240, 251, 268, 285, 289, 251, 255, 233, 230, 227, 229, 196, 206, 242, 246, 227, 289, 296, 264, 264, 276, 264, 280, 290, 279, 280, 253, 240, 244, 263, 259, 288, 276, 254, 261, 290, 264, 295, 299, 304, 280, 267, 232, 285, 267, 258, 255, 251, 208, 198, 202, 215, 214, 197, 190, 180, 153, 205, 219, 250, 274, 285, 256, 253, 227, 207, 201, 213, 212, 204, 197, 204, 192, 197, 248, 261, 250, 242, 229, 180, 168, 172, 193, 190, 190, 186, 231, 224, 244, 267, 271},
{184, 189, 198, 205, 170, 208, 213, 201, 197, 193, 162, 171, 181, 183, 182, 193, 175, 192, 195, 194, 163, 180, 167, 161, 167, 205, 213, 204, 203, 207, 198, 186, 178, 181, 182, 178, 179, 189, 196, 178, 152, 149, 145, 169, 196, 196, 192, 187, 172, 142, 140, 143, 175, 166, 168, 169, 166, 134, 120, 111, 136, 139, 143, 158, 180, 164, 158, 157, 155, 135, 129, 123, 119, 115, 124, 131, 139, 144, 149, 145, 140, 138, 174, 169, 172, 173, 172, 142, 141, 130, 129, 150, 150, 143, 147, 158, 138, 130, 134, 136},
{52, 53, 50, 56, 53, 67, 69, 70, 76, 75, 72, 71, 75, 69, 67, 73, 74, 77, 79, 79, 68, 66, 66, 61, 63, 73, 72, 70, 70, 70, 65, 68, 67, 65, 67, 71, 72, 72, 72, 67, 55, 53, 53, 52, 57, 56, 50, 49, 51, 47, 53, 57, 66, 64, 64, 62, 65, 55, 54, 53, 58, 58, 66, 76, 77, 72, 69, 75, 64, 60, 63, 61, 45, 49, 52, 54, 55, 56, 58, 55, 46, 46, 56, 54, 58, 65, 64, 60, 67, 65, 66, 74, 79, 72, 74, 70, 63, 53, 55, 60},
{29, 31, 31, 30, 31, 36, 40, 43, 55, 56, 57, 54, 53, 42, 41, 43, 47, 48, 52, 52, 51, 51, 52, 49, 54, 59, 63, 60, 69, 68, 69, 65, 76, 69, 75, 71, 71, 60, 60, 48, 42, 41, 39, 39, 43, 44, 45, 53, 50, 50, 55, 58, 56, 59, 56, 53, 59, 53, 54, 59, 63, 60, 71, 76, 74, 68, 67, 64, 61, 61, 63, 61, 52, 46, 55, 55, 56, 56, 58, 44, 42, 42, 48, 46, 47, 48, 49, 45, 48, 50, 56, 70, 74, 73, 77, 73, 57, 49, 49, 51},
{27, 27, 28, 31, 32, 33, 38, 39, 41, 40, 40, 36, 35, 31, 31, 37, 40, 40, 42, 41, 37, 35, 38, 37, 41, 53, 58, 57, 57, 56, 48, 46, 49, 47, 46, 41, 34, 33, 34, 36, 35, 35, 31, 33, 33, 34, 37, 41, 39, 41, 41, 41, 38, 37, 33, 34, 33, 31, 33, 34, 33, 35, 38, 41, 41, 39, 39, 44, 46, 47, 50, 49, 43, 36, 43, 41, 43, 43, 43, 36, 35, 33, 35, 37, 37, 35, 34, 33, 35, 34, 37, 50, 49, 46, 50, 50, 39, 38, 41, 39}}

// 27 Reading of the 8 sensors, 100 samples per sensor
{{43, 44, 45, 46, 43, 41, 38, 43, 42, 43, 41, 39, 32, 34, 36, 45, 46, 47, 51, 50, 47, 50, 50, 48, 49, 46, 41, 40, 35, 33, 29, 38, 37, 39, 43, 44, 38, 39, 37, 33, 36, 36, 37, 42, 41, 42, 43, 45, 39, 39, 37, 41, 42, 42, 44, 48, 45, 41, 45, 47, 46, 45, 48, 47, 45, 41, 42, 40, 42, 44, 43, 44, 44, 42, 42, 48, 47, 46, 45, 47, 41, 45, 49, 49, 48, 51, 48, 45, 44, 43, 42, 40, 38, 39, 41, 43, 45, 48, 45, 49},
{95, 93, 102, 107, 111, 111, 93, 93, 97, 94, 93, 93, 90, 85, 86, 99, 128, 141, 146, 144, 139, 127, 114, 106, 108, 106, 87, 94, 103, 101, 108, 122, 112, 114, 122, 113, 100, 101, 86, 74, 71, 74, 79, 90, 86, 95, 105, 110, 100, 103, 99, 100, 90, 96, 97, 107, 97, 95, 90, 84, 87, 89, 91, 92, 97, 75, 69, 80, 87, 84, 94, 95, 89, 88, 92, 96, 93, 91, 82, 84, 78, 79, 82, 88, 82, 73, 78, 75, 69, 66, 75, 71, 66, 76, 91, 95, 100, 106, 113, 104},
{252, 240, 249, 283, 292, 298, 289, 271, 236, 214, 202, 211, 256, 242, 257, 274, 332, 327, 355, 355, 348, 327, 341, 327, 325, 382, 351, 337, 383, 396, 337, 335, 315, 249, 250, 242, 234, 230, 217, 191, 187, 176, 190, 224, 222, 234, 262, 259, 220, 230, 239, 222, 232, 283, 275, 268, 278, 283, 253, 262, 330, 325, 349, 334, 346, 290, 328, 288, 295, 275, 267, 213, 211, 247, 282, 293, 283, 279, 246, 239, 231, 257, 283, 336, 304, 288, 275, 259, 183, 212, 249, 247, 236, 270, 268, 238, 249, 247, 224, 223},
{289, 298, 266, 292, 276, 261, 270, 273, 326, 325, 310, 313, 345, 275, 275, 273, 264, 233, 251, 249, 349, 403, 406, 393, 423, 355, 277, 264, 257, 257, 253, 259, 246, 261, 267, 262, 259, 260, 278, 256, 251, 248, 238, 274, 242, 255, 259, 287, 246, 263, 325, 323, 313, 304, 286, 198, 186, 172, 167, 192, 239, 241, 267, 254, 261, 221, 234, 236, 244, 226, 240, 232, 200, 299, 311, 330, 328, 323, 234, 238, 240, 261, 264, 289, 269, 230, 199, 211, 188, 200, 231, 236, 227, 215, 205, 186, 175, 179, 188, 186},
{248, 269, 260, 252, 244, 231, 248, 255, 287, 282, 277, 257, 261, 205, 215, 225, 224, 236, 249, 259, 324, 331, 311, 300, 310, 231, 212, 239, 240, 229, 242, 239, 223, 225, 232, 228, 224, 214, 223, 205, 194, 210, 207, 221, 195, 193, 211, 209, 190, 206, 242, 216, 217, 217, 200, 158, 142, 137, 132, 145, 153, 169, 176, 192, 183, 181, 174, 178, 157, 164, 161, 168, 166, 189, 187, 209, 216, 206, 178, 189, 176, 175, 173, 192, 188, 179, 168, 172, 146, 138, 154, 149, 152, 163, 161, 147, 143, 146, 163, 156},
{73, 78, 79, 78, 81, 79, 93, 95, 90, 83, 83, 64, 59, 57, 61, 69, 69, 73, 70, 81, 89, 93, 94, 97, 90, 74, 70, 64, 58, 59, 59, 59, 61, 68, 70, 72, 75, 77, 74, 75, 75, 69, 66, 77, 69, 67, 72, 72, 67, 70, 73, 74, 76, 68, 67, 71, 68, 66, 75, 74, 71, 72, 69, 68, 66, 63, 62, 63, 52, 51, 48, 47, 52, 61, 64, 66, 69, 66, 59, 55, 60, 59, 58, 62, 67, 62, 60, 61, 55, 49, 49, 48, 42, 48, 45, 49, 50, 57, 63, 66},
{48, 51, 53, 59, 61, 57, 60, 65, 58, 56, 55, 50, 40, 44, 45, 50, 50, 52, 51, 57, 60, 60, 68, 69, 64, 61, 60, 46, 43, 44, 38, 49, 57, 67, 67, 68, 66, 67, 59, 61, 65, 61, 57, 66, 63, 59, 60, 62, 56, 57, 59, 61, 64, 65, 66, 70, 67, 63, 75, 74, 79, 152, 157, 153, 155, 159, 94, 86, 83, 77, 67, 64, 61, 58, 65, 53, 65, 74, 74, 71, 78, 73, 68, 71, 79, 76, 73, 76, 74, 64, 65, 63, 58, 57, 51, 48, 49, 57, 65, 73},
{35, 37, 38, 42, 43, 41, 41, 42, 37, 35, 33, 30, 25, 28, 28, 35, 38, 39, 39, 43, 43, 43, 45, 46, 43, 38, 37, 32, 31, 34, 33, 40, 42, 44, 42, 41, 40, 38, 38, 40, 43, 40, 43, 47, 45, 43, 43, 41, 37, 37, 37, 41, 43, 44, 43, 44, 42, 41, 48, 52, 74, 138, 151, 152, 152, 147, 96, 82, 82, 81, 72, 65, 52, 42, 45, 44, 49, 51, 53, 50, 51, 51, 50, 48, 50, 48, 44, 43, 42, 40, 40, 38, 34, 34, 32, 33, 35, 39, 38, 40}}

// 28 Reading of the 8 sensors, 100 samples per sensor
{{39, 39, 41, 37, 37, 36, 37, 37, 39, 38, 38, 38, 39, 43, 44, 44, 45, 43, 39, 34, 37, 33, 34, 35, 37, 35, 35, 34, 36, 35, 35, 36, 37, 36, 38, 37, 37, 41, 39, 37, 37, 41, 36, 36, 37, 37, 34, 37, 40, 39, 38, 41, 37, 41, 39, 44, 42, 44, 40, 42, 39, 35, 33, 33, 35, 35, 35, 36, 37, 33, 32, 36, 36, 32, 33, 36, 38, 39, 39, 38, 36, 33, 34, 34, 34, 34, 31, 28, 29, 31, 33, 35, 38, 37, 38, 40, 39, 38, 38, 37},
{74, 81, 82, 81, 105, 118, 119, 115, 115, 99, 85, 81, 83, 80, 82, 75, 71, 65, 63, 55, 66, 67, 73, 75, 78, 74, 75, 82, 83, 85, 80, 80, 76, 79, 82, 82, 82, 86, 102, 112, 114, 130, 124, 106, 91, 89, 68, 68, 74, 71, 72, 65, 60, 59, 58, 62, 68, 79, 91, 102, 101, 96, 89, 67, 75, 86, 89, 92, 106, 95, 88, 89, 90, 75, 79, 75, 75, 71, 72, 70, 76, 94, 96, 99, 95, 90, 68, 72, 70, 70, 74, 71, 72, 75, 80, 77, 77, 73, 71, 68},
{235, 241, 237, 234, 240, 257, 272, 261, 245, 235, 237, 218, 220, 224, 213, 191, 189, 212, 221, 227, 246, 243, 250, 244, 252, 249, 278, 272, 263, 273, 265, 238, 227, 249, 227, 210, 196, 242, 234, 244, 260, 289, 241, 227, 219, 230, 207, 213, 214, 204, 200, 187, 184, 187, 186, 165, 181, 228, 251, 259, 264, 255, 224, 221, 216, 203, 197, 175, 174, 185, 182, 202, 221, 190, 193, 192, 196, 201, 209, 191, 196, 226, 207, 205, 212, 214, 156, 168, 179, 175, 191, 223, 219, 208, 228, 226, 200, 214, 226, 206},
{306, 283, 304, 302, 250, 257, 305, 287, 336, 340, 335, 306, 309, 254, 246, 260, 250, 248, 238, 254, 217, 222, 204, 239, 241, 245, 236, 251, 215, 217, 216, 224, 246, 264, 249, 288, 280, 271, 270, 273, 245, 252, 248, 238, 244, 234, 249, 237, 237, 236, 249, 226, 251, 244, 237, 209, 225, 197, 196, 182, 193, 168, 179, 186, 197, 192, 190, 171, 158, 183, 176, 188, 190, 203, 200, 196, 202, 211, 204, 206, 221, 210, 205, 282, 279, 273, 265, 276, 193, 210, 225, 254, 248, 251, 242, 255, 241, 225, 232, 216},
{225, 209, 219, 220, 187, 184, 186, 185, 234, 236, 232, 234, 226, 176, 183, 199, 204, 201, 185, 181, 156, 160, 150, 192, 187, 179, 168, 191, 165, 177, 186, 194, 199, 197, 185, 180, 164, 145, 215, 234, 233, 242, 249, 189, 180, 181, 186, 185, 199, 187, 190, 180, 183, 179, 189, 196, 209, 220, 209, 208, 199, 180, 170, 175, 178, 183, 179, 156, 154, 148, 147, 172, 181, 182, 197, 203, 193, 201, 202, 202, 210, 200, 187, 193, 172, 149, 144, 133, 109, 131, 124, 151, 165, 169, 170, 191, 179, 170, 193, 180},
{82, 77, 75, 70, 64, 69, 72, 69, 67, 73, 69, 69, 74, 73, 71, 72, 70, 62, 57, 56, 53, 55, 57, 72, 69, 70, 66, 66, 60, 65, 68, 68, 69, 68, 66, 65, 69, 68, 72, 81, 79, 76, 77, 68, 53, 55, 62, 63, 69, 69, 65, 65, 63, 64, 65, 68, 63, 69, 66, 67, 67, 66, 60, 55, 57, 58, 55, 51, 47, 44, 50, 60, 70, 71, 72, 69, 66, 71, 70, 73, 73, 69, 58, 59, 52, 47, 46, 41, 45, 50, 49, 52, 53, 51, 53, 59, 58, 62, 64, 63},
{66, 66, 69, 67, 65, 68, 67, 58, 48, 52, 49, 54, 59, 63, 61, 61, 61, 53, 50, 47, 53, 51, 62, 69, 69, 69, 72, 66, 62, 64, 64, 60, 56, 57, 65, 62, 64, 64, 62, 66, 65, 60, 67, 68, 58, 59, 59, 54, 55, 58, 60, 69, 70, 73, 70, 67, 60, 59, 50, 51, 57, 56, 53, 53, 54, 54, 55, 56, 58, 57, 56, 59, 68, 66, 72, 72, 75, 71, 70, 64, 58, 47, 50, 53, 55, 53, 54, 43, 46, 50, 51, 55, 54, 49, 43, 44, 38, 41, 41, 42},
{25, 27, 29, 30, 31, 32, 30, 31, 31, 33, 34, 35, 35, 38, 36, 36, 35, 33, 29, 28, 29, 27, 29, 33, 32, 34, 35, 33, 35, 37, 32, 34, 34, 36, 39, 39, 38, 39, 33, 29, 30, 31, 30, 31, 34, 35, 34, 33, 36, 34, 33, 35, 34, 38, 36, 40, 39, 40, 33, 35, 33, 33, 30, 30, 29, 27, 26, 28, 30, 28, 27, 28, 27, 25, 29, 31, 35, 37, 38, 38, 36, 32, 35, 34, 29, 31, 31, 26, 29, 31, 29, 30, 32, 28, 30, 30, 28, 27, 30, 28}}

// 29 Reading of the 8 sensors, 100 samples per sensor
{{41, 41, 42, 42, 45, 43, 56, 74, 80, 83, 84, 75, 63, 55, 48, 46, 54, 48, 45, 48, 54, 46, 43, 47, 46, 39, 40, 44, 47, 46, 48, 47, 48, 43, 41, 37, 43, 48, 47, 51, 58, 55, 51, 57, 68, 63, 63, 62, 58, 41, 41, 38, 42, 40, 37, 37, 37, 50, 50, 50, 50, 53, 36, 39, 40, 43, 38, 42, 39, 36, 32, 36, 33, 40, 45, 51, 49, 48, 44, 42, 34, 36, 38, 40, 36, 44, 45, 49, 51, 59, 55, 57, 54, 54, 46, 48, 43, 44, 40, 39},
{67, 68, 69, 70, 74, 66, 81, 134, 155, 169, 175, 168, 160, 144, 133, 126, 129, 97, 86, 80, 105, 111, 104, 109, 106, 98, 90, 94, 104, 109, 91, 104, 107, 95, 92, 93, 87, 89, 88, 97, 115, 108, 104, 109, 110, 91, 96, 92, 86, 72, 74, 66, 73, 78, 76, 72, 74, 88, 86, 86, 86, 91, 68, 75, 74, 76, 70, 77, 77, 82, 81, 88, 81, 79, 80, 88, 85, 91, 89, 85, 79, 81, 81, 78, 74, 80, 84, 82, 88, 95, 86, 75, 70, 68, 59, 60, 61, 62, 52, 55},
{209, 213, 237, 254, 250, 271, 302, 346, 352, 392, 381, 376, 468, 454, 432, 435, 421, 239, 224, 189, 199, 222, 241, 236, 246, 275, 276, 289, 294, 317, 285, 274, 246, 237, 214, 220, 274, 282, 285, 292, 323, 256, 262, 272, 267, 275, 289, 303, 303, 303, 284, 300, 277, 267, 293, 280, 271, 310, 334, 303, 303, 308, 279, 253, 286, 271, 246, 253, 265, 245, 239, 258, 235, 250, 228, 248, 265, 272, 278, 286, 285, 260, 250, 236, 257, 227, 223, 230, 213, 221, 243, 290, 282, 287, 276, 263, 211, 210, 190, 193},
{248, 245, 242, 225, 226, 213, 194, 277, 283, 287, 287, 297, 239, 234, 248, 244, 252, 253, 260, 236, 230, 207, 217, 213, 215, 236, 250, 277, 286, 317, 323, 313, 272, 264, 229, 210, 223, 217, 220, 220, 224, 216, 237, 229, 250, 235, 252, 259, 259, 231, 239, 206, 168, 186, 222, 244, 298, 337, 334, 321, 314, 273, 242, 234, 222, 200, 223, 227, 225, 223, 231, 226, 221, 220, 229, 230, 209, 203, 220, 211, 206, 213, 197, 177, 215, 242, 236, 243, 272, 281, 260, 264, 291, 272, 309, 325, 324, 294, 292, 250},
{214, 207, 194, 193, 191, 164, 154, 210, 212, 206, 208, 243, 208, 213, 213, 198, 192, 194, 191, 201, 210, 187, 206, 201, 193, 199, 209, 188, 183, 197, 220, 213, 210, 219, 205, 176, 168, 163, 169, 173, 175, 188, 190, 187, 215, 208, 200, 202, 192, 158, 166, 162, 148, 165, 176, 193, 239, 246, 235, 235, 216, 157, 154, 150, 137, 166, 188, 216, 221, 215, 194, 194, 179, 185, 200, 202, 177, 176, 174, 156, 181, 191, 170, 190, 215, 195, 206, 218, 218, 230, 234, 227, 268, 253, 290, 305, 304, 259, 272, 224},
{74, 72, 64, 63, 70, 57, 57, 69, 69, 65, 65, 70, 64, 66, 67, 65, 63, 61, 65, 66, 66, 61, 64, 61, 59, 58, 59, 58, 55, 66, 74, 75, 70, 71, 57, 45, 50, 52, 64, 63, 64, 66, 69, 66, 75, 75, 70, 66, 62, 52, 51, 52, 50, 51, 55, 60, 69, 74, 70, 69, 65, 54, 48, 47, 46, 56, 57, 66, 68, 66, 57, 58, 55, 59, 62, 65, 65, 61, 58, 55, 59, 60, 55, 59, 73, 70, 71, 79, 82, 74, 74, 74, 76, 69, 72, 75, 71, 59, 62, 55},
{41, 47, 51, 53, 56, 55, 50, 49, 45, 49, 62, 69, 72, 72, 67, 59, 52, 43, 53, 58, 52, 52, 55, 48, 44, 43, 44, 49, 47, 53, 57, 59, 57, 61, 59, 56, 59, 54, 57, 58, 61, 59, 60, 56, 52, 47, 43, 40, 42, 38, 37, 40, 42, 42, 45, 49, 50, 49, 47, 51, 47, 47, 48, 48, 45, 52, 51, 53, 52, 49, 41, 43, 39, 43, 46, 50, 47, 46, 42, 39, 39, 41, 41, 40, 41, 47, 49, 53, 61, 64, 57, 57, 58, 49, 48, 55, 52, 50, 51, 47},
{32, 35, 35, 38, 38, 36, 34, 40, 37, 38, 38, 39, 39, 38, 36, 34, 35, 30, 34, 35, 38, 35, 33, 31, 33, 30, 33, 34, 31, 32, 35, 33, 36, 36, 37, 35, 39, 40, 38, 36, 38, 35, 35, 35, 38, 35, 35, 33, 37, 36, 36, 33, 35, 32, 33, 36, 39, 39, 39, 39, 37, 34, 33, 34, 34, 36, 36, 37, 36, 34, 33, 34, 33, 33, 31, 31, 30, 31, 29, 31, 30, 32, 30, 29, 30, 35, 34, 38, 43, 47, 44, 45, 43, 40, 35, 40, 38, 36, 35, 34}}

// 30 Reading of the 8 sensors, 100 samples per sensor
{{34, 34, 34, 33, 37, 37, 41, 42, 43, 41, 39, 36, 40, 40, 46, 47, 56, 55, 58, 56, 54, 45, 44, 40, 43, 43, 41, 43, 45, 42, 41, 42, 38, 37, 35, 36, 47, 50, 48, 52, 50, 42, 38, 40, 40, 38, 39, 42, 43, 44, 51, 47, 49, 48, 42, 37, 38, 35, 34, 37, 37, 40, 40, 37, 41, 38, 34, 33, 33, 26, 43, 45, 45, 46, 46, 30, 29, 30, 30, 37, 37, 36, 36, 39, 34, 32, 33, 30, 28, 29, 34, 37, 38, 35, 36, 36, 34, 35, 39, 39},
{69, 70, 69, 74, 85, 72, 76, 81, 81, 71, 76, 75, 74, 74, 79, 84, 106, 172, 182, 190, 189, 176, 112, 95, 84, 91, 95, 99, 105, 97, 85, 87, 80, 71, 69, 70, 89, 93, 95, 102, 100, 82, 75, 87, 87, 89, 88, 93, 76, 74, 78, 76, 79, 90, 79, 81, 90, 91, 83, 94, 90, 90, 87, 86, 83, 84, 77, 84, 81, 75, 78, 84, 73, 75, 73, 65, 57, 56, 56, 57, 57, 64, 79, 78, 78, 77, 68, 54, 61, 68, 68, 65, 62, 56, 52, 52, 52, 59, 63, 60},
{229, 240, 247, 258, 308, 262, 283, 283, 308, 288, 315, 302, 316, 310, 280, 270, 410, 498, 500, 506, 513, 417, 300, 280, 290, 284, 285, 288, 295, 287, 262, 260, 271, 256, 257, 268, 311, 289, 301, 331, 357, 306, 333, 347, 353, 347, 344, 326, 309, 284, 271, 277, 307, 305, 270, 266, 276, 238, 215, 242, 223, 246, 246, 252, 251, 263, 242, 241, 240, 238, 234, 249, 243, 247, 229, 229, 228, 221, 229, 236, 227, 192, 206, 185, 178, 177, 183, 175, 230, 232, 225, 215, 212, 199, 214, 217, 226, 241, 220, 225},
{240, 295, 301, 317, 344, 302, 288, 286, 293, 273, 305, 276, 277, 268, 253, 218, 216, 261, 254, 256, 269, 287, 253, 249, 284, 265, 264, 284, 305, 306, 315, 309, 283, 293, 270, 282, 325, 335, 313, 324, 323, 268, 267, 287, 286, 272, 277, 256, 243, 220, 232, 241, 273, 263, 261, 241, 258, 251, 233, 234, 253, 214, 187, 197, 213, 194, 251, 258, 258, 244, 246, 197, 185, 177, 171, 169, 164, 184, 192, 207, 202, 213, 194, 179, 175, 186, 173, 200, 211, 220, 220, 218, 201, 213, 221, 212, 207, 232, 235, 213},
{178, 205, 207, 240, 264, 255, 236, 240, 213, 206, 174, 175, 198, 215, 191, 200, 203, 243, 227, 248, 248, 247, 182, 197, 192, 179, 215, 248, 255, 248, 262, 238, 201, 200, 200, 205, 225, 257, 266, 266, 261, 244, 212, 196, 188, 164, 165, 162, 166, 168, 175, 187, 192, 190, 200, 205, 203, 214, 204, 197, 211, 201, 181, 171, 187, 161, 170, 186, 208, 187, 202, 193, 174, 169, 171, 161, 165, 178, 163, 181, 170, 172, 172, 167, 157, 164, 153, 155, 154, 142, 153, 148, 145, 156, 167, 159, 170, 183, 187, 172},
{46, 58, 59, 70, 77, 83, 77, 77, 71, 67, 59, 62, 71, 74, 73, 86, 89, 93, 91, 93, 86, 86, 74, 75, 80, 72, 65, 70, 64, 56, 61, 62, 57, 68, 69, 77, 88, 97, 95, 100, 97, 85, 76, 71, 65, 56, 63, 59, 63, 70, 75, 71, 72, 68, 58, 54, 58, 57, 59, 67, 66, 64, 64, 60, 54, 53, 50, 58, 63, 65, 72, 71, 62, 65, 61, 53, 55, 58, 48, 52, 50, 50, 46, 47, 47, 48, 58, 64, 63, 63, 67, 61, 62, 62, 65, 63, 68, 66, 67, 63},
{43, 49, 56, 63, 65, 68, 65, 63, 57, 56, 51, 50, 52, 50, 48, 56, 65, 78, 88, 89, 89, 91, 75, 64, 67, 62, 48, 49, 46, 36, 37, 36, 38, 45, 48, 53, 59, 62, 61, 64, 67, 66, 61, 59, 57, 45, 38, 40, 42, 43, 48, 50, 52, 52, 47, 42, 42, 41, 41, 58, 68, 85, 86, 85, 78, 69, 51, 51, 54, 51, 57, 51, 50, 50, 47, 42, 42, 42, 39, 43, 41, 41, 39, 47, 45, 45, 53, 57, 54, 56, 57, 76, 90, 91, 95, 96, 83, 65, 62, 57},
{38, 43, 45, 54, 60, 62, 60, 60, 54, 46, 37, 36, 39, 38, 38, 46, 55, 69, 76, 80, 77, 77, 63, 54, 52, 48, 36, 35, 35, 27, 30, 33, 32, 37, 40, 40, 43, 45, 41, 43, 44, 40, 39, 39, 36, 31, 33, 33, 35, 39, 43, 43, 42, 43, 37, 33, 33, 32, 31, 103, 136, 141, 143, 144, 108, 63, 51, 45, 42, 36, 41, 38, 38, 39, 36, 27, 26, 28, 26, 30, 30, 30, 28, 31, 28, 28, 30, 32, 31, 30, 45, 71, 81, 91, 92, 86, 68, 56, 40, 43}}

// 31 Reading of the 8 sensors, 100 samples per sensor
{{32, 38, 40, 39, 38, 38, 33, 30, 35, 33, 32, 34, 33, 30, 31, 35, 37, 41, 40, 41, 40, 40, 36, 37, 34, 38, 33, 36, 40, 42, 41, 41, 39, 35, 40, 38, 39, 37, 38, 35, 36, 35, 36, 36, 34, 34, 36, 38, 39, 36, 38, 37, 33, 35, 34, 31, 32, 36, 33, 31, 31, 32, 31, 34, 39, 40, 39, 38, 35, 33, 31, 34, 33, 31, 29, 27, 27, 29, 31, 32, 34, 31, 32, 30, 29, 25, 25, 28, 34, 36, 36, 35, 34, 30, 29, 32, 32, 32, 31, 32},
{96, 102, 97, 82, 75, 87, 87, 84, 93, 91, 87, 81, 83, 79, 93, 89, 97, 98, 97, 94, 96, 96, 93, 90, 76, 80, 70, 69, 74, 83, 80, 81, 85, 81, 93, 91, 98, 92, 91, 71, 75, 67, 73, 80, 83, 74, 74, 75, 78, 74, 80, 79, 81, 78, 78, 75, 80, 80, 73, 76, 84, 82, 76, 86, 88, 87, 84, 82, 77, 74, 62, 68, 70, 70, 70, 76, 75, 71, 64, 66, 66, 64, 63, 66, 61, 54, 54, 67, 75, 72, 76, 73, 70, 63, 67, 65, 71, 83, 87, 87},
{299, 294, 301, 241, 242, 237, 264, 250, 248, 222, 235, 210, 223, 209, 238, 234, 292, 290, 307, 302, 292, 252, 247, 232, 230, 248, 244, 250, 258, 236, 203, 184, 178, 169, 203, 214, 237, 235, 232, 210, 212, 191, 203, 221, 233, 226, 220, 229, 212, 211, 202, 197, 209, 208, 208, 220, 233, 220, 219, 212, 213, 201, 187, 220, 214, 233, 243, 264, 254, 268, 245, 243, 219, 213, 200, 223, 228, 225, 217, 216, 217, 208, 205, 225, 225, 204, 211, 206, 175, 149, 158, 140, 141, 158, 173, 176, 188, 197, 189, 179},
{307, 266, 241, 219, 168, 188, 192, 194, 223, 223, 195, 193, 201, 180, 170, 203, 265, 262, 248, 259, 254, 198, 190, 220, 228, 214, 208, 211, 191, 163, 158, 167, 174, 174, 175, 175, 183, 183, 172, 184, 182, 191, 178, 178, 171, 181, 146, 184, 186, 198, 200, 212, 223, 229, 224, 236, 229, 193, 182, 188, 172, 163, 157, 265, 256, 256, 298, 301, 213, 224, 224, 168, 161, 175, 159, 163, 193, 197, 201, 200, 188, 163, 203, 187, 177, 181, 180, 139, 163, 168, 191, 212, 207, 182, 182, 162, 123, 121, 135, 131},
{189, 170, 163, 156, 141, 162, 183, 183, 189, 196, 174, 153, 182, 185, 174, 176, 228, 214, 205, 207, 222, 182, 180, 174, 171, 142, 132, 126, 118, 113, 126, 154, 157, 162, 162, 155, 153, 148, 147, 157, 165, 148, 141, 145, 144, 144, 128, 176, 170, 168, 171, 180, 167, 177, 175, 186, 177, 155, 148, 157, 144, 148, 152, 203, 199, 195, 228, 240, 198, 206, 201, 165, 146, 151, 136, 138, 138, 128, 140, 140, 134, 135, 172, 152, 153, 165, 163, 137, 146, 141, 150, 155, 142, 131, 138, 143, 138, 143, 155, 154},
{71, 63, 63, 62, 55, 58, 59, 57, 60, 63, 57, 54, 63, 59, 54, 52, 67, 62, 60, 66, 74, 67, 65, 66, 61, 58, 62, 59, 55, 56, 52, 48, 50, 52, 55, 52, 51, 50, 50, 51, 60, 58, 60, 58, 54, 46, 41, 51, 54, 55, 55, 61, 58, 58, 59, 61, 55, 48, 49, 56, 61, 63, 69, 91, 88, 84, 83, 81, 60, 59, 59, 60, 57, 49, 48, 50, 52, 50, 53, 52, 47, 43, 55, 50, 50, 56, 55, 52, 54, 56, 53, 57, 53, 56, 54, 55, 54, 49, 44, 41},
{38, 38, 39, 37, 38, 37, 39, 42, 47, 47, 47, 48, 51, 48, 47, 48, 49, 48, 48, 51, 54, 55, 55, 59, 54, 55, 55, 52, 45, 48, 48, 42, 45, 45, 46, 42, 42, 43, 47, 48, 50, 50, 53, 54, 59, 58, 56, 55, 52, 42, 40, 49, 45, 48, 46, 54, 45, 49, 47, 47, 47, 48, 47, 60, 62, 61, 62, 61, 53, 54, 56, 57, 56, 50, 49, 44, 48, 48, 51, 48, 43, 37, 42, 37, 43, 48, 50, 52, 57, 57, 53, 52, 50, 49, 46, 55, 54, 49, 45, 44},
{33, 32, 31, 31, 31, 29, 30, 29, 32, 34, 34, 34, 35, 32, 32, 33, 32, 37, 37, 37, 37, 38, 33, 36, 34, 35, 35, 36, 37, 39, 39, 36, 37, 35, 36, 34, 35, 33, 33, 31, 32, 33, 36, 36, 41, 39, 40, 41, 40, 33, 33, 31, 25, 31, 31, 32, 32, 37, 36, 35, 39, 38, 34, 37, 39, 36, 36, 38, 34, 35, 33, 35, 34, 30, 28, 28, 30, 31, 33, 32, 33, 30, 31, 30, 31, 32, 32, 34, 39, 39, 37, 37, 36, 32, 33, 35, 34, 32, 32, 30}}

// 32 Reading of the 8 sensors, 100 samples per sensor
{{38, 41, 42, 39, 39, 39, 35, 31, 31, 30, 30, 28, 32, 34, 36, 36, 37, 37, 34, 36, 38, 37, 35, 35, 34, 30, 32, 36, 38, 40, 42, 43, 40, 41, 38, 36, 34, 34, 35, 35, 37, 35, 34, 34, 37, 40, 45, 45, 43, 41, 35, 31, 35, 38, 40, 41, 40, 37, 31, 27, 25, 24, 24, 24, 29, 32, 37, 41, 41, 37, 36, 30, 25, 28, 33, 32, 35, 38, 38, 38, 38, 38, 36, 37, 37, 37, 37, 41, 42, 42, 45, 43, 39, 36, 33, 36, 35, 37, 35, 37},
{91, 112, 114, 126, 129, 110, 91, 92, 90, 89, 87, 94, 91, 78, 81, 85, 76, 78, 85, 78, 75, 78, 95, 90, 91, 90, 91, 66, 69, 68, 70, 65, 68, 63, 67, 69, 79, 83, 96, 101, 101, 94, 96, 95, 87, 95, 110, 107, 99, 98, 88, 74, 73, 76, 85, 93, 87, 88, 81, 75, 67, 69, 72, 82, 87, 89, 101, 110, 107, 101, 107, 96, 76, 74, 77, 69, 74, 96, 95, 93, 101, 97, 77, 78, 87, 74, 75, 93, 99, 101, 110, 108, 92, 88, 86, 84, 84, 85, 81, 73},
{214, 232, 227, 256, 263, 240, 212, 240, 225, 224, 241, 248, 228, 248, 236, 223, 237, 269, 251, 274, 270, 254, 225, 215, 209, 211, 211, 224, 238, 208, 203, 202, 187, 181, 185, 187, 203, 196, 198, 221, 255, 247, 273, 281, 268, 273, 299, 284, 275, 281, 248, 210, 205, 213, 217, 241, 253, 250, 241, 259, 253, 241, 258, 259, 236, 220, 216, 198, 195, 197, 199, 202, 210, 209, 207, 230, 235, 282, 287, 283, 274, 262, 201, 181, 256, 239, 247, 258, 258, 248, 279, 285, 278, 299, 268, 263, 277, 285, 288, 276},
{228, 223, 211, 206, 249, 264, 246, 237, 229, 184, 159, 178, 183, 185, 192, 167, 179, 179, 173, 160, 179, 168, 180, 197, 197, 206, 194, 228, 215, 221, 238, 267, 222, 224, 230, 216, 219, 256, 258, 250, 277, 247, 218, 220, 233, 183, 184, 174, 186, 167, 174, 176, 179, 177, 177, 172, 167, 177, 159, 175, 183, 179, 172, 184, 169, 145, 160, 175, 164, 191, 201, 205, 186, 186, 195, 218, 205, 208, 242, 291, 276, 275, 273, 252, 162, 151, 160, 219, 209, 220, 250, 259, 217, 225, 208, 201, 196, 202, 241, 246},
{143, 175, 173, 183, 230, 261, 241, 229, 219, 174, 131, 135, 143, 138, 141, 135, 138, 172, 171, 168, 177, 187, 163, 170, 166, 161, 144, 178, 174, 179, 180, 206, 174, 171, 177, 198, 187, 202, 203, 201, 189, 170, 157, 165, 165, 150, 162, 151, 149, 139, 141, 130, 144, 138, 144, 157, 170, 172, 167, 173, 160, 153, 141, 152, 142, 131, 123, 139, 136, 156, 182, 185, 167, 159, 168, 180, 176, 180, 228, 256, 237, 236, 233, 197, 151, 145, 158, 257, 254, 248, 262, 257, 165, 156, 146, 133, 130, 139, 177, 184},
{54, 53, 51, 48, 54, 72, 71, 69, 68, 68, 51, 55, 56, 62, 58, 57, 56, 67, 63, 63, 69, 74, 63, 66, 68, 61, 56, 63, 59, 59, 64, 63, 60, 59, 61, 61, 61, 64, 66, 62, 63, 60, 53, 53, 59, 59, 64, 67, 67, 62, 60, 55, 63, 61, 62, 60, 64, 55, 52, 59, 58, 57, 55, 59, 56, 58, 54, 57, 53, 51, 54, 55, 53, 53, 57, 60, 58, 58, 73, 77, 72, 78, 76, 73, 68, 71, 68, 93, 87, 86, 87, 85, 59, 57, 51, 52, 49, 58, 60, 63},
{42, 41, 44, 42, 43, 46, 40, 41, 40, 43, 42, 43, 42, 45, 43, 42, 41, 47, 46, 46, 56, 62, 54, 52, 56, 46, 41, 47, 50, 46, 45, 44, 45, 48, 50, 52, 53, 48, 47, 45, 44, 43, 43, 40, 44, 47, 48, 50, 49, 46, 43, 39, 36, 39, 38, 40, 45, 43, 44, 46, 44, 44, 45, 42, 43, 43, 40, 42, 42, 41, 39, 43, 43, 44, 47, 50, 58, 55, 63, 64, 61, 54, 53, 46, 45, 48, 48, 54, 56, 53, 51, 48, 44, 41, 41, 48, 46, 53, 51, 54},
{33, 33, 33, 28, 30, 31, 28, 27, 30, 29, 31, 33, 34, 35, 37, 35, 33, 37, 36, 36, 39, 42, 38, 36, 36, 31, 29, 32, 35, 34, 33, 33, 30, 28, 29, 31, 31, 32, 33, 29, 29, 29, 27, 28, 32, 34, 35, 34, 34, 33, 31, 29, 30, 34, 32, 30, 29, 30, 28, 28, 29, 31, 30, 30, 32, 32, 35, 35, 33, 32, 31, 31, 33, 34, 35, 36, 38, 35, 39, 41, 39, 37, 38, 35, 33, 32, 30, 33, 35, 36, 37, 36, 35, 34, 34, 36, 37, 37, 36, 34}}

// 33 Reading of the 8 sensors, 100 samples per sensor
{{24, 28, 27, 29, 31, 32, 31, 33, 32, 33, 31, 27, 28, 27, 26, 31, 40, 39, 40, 39, 38, 33, 32, 31, 32, 30, 32, 32, 51, 85, 107, 109, 111, 106, 83, 54, 49, 46, 44, 42, 46, 45, 47, 45, 47, 46, 49, 50, 50, 49, 54, 52, 47, 50, 52, 50, 54, 53, 50, 47, 40, 34, 36, 38, 38, 36, 35, 35, 41, 38, 40, 41, 42, 37, 52, 90, 101, 101, 105, 104, 78, 65, 69, 65, 57, 51, 48, 41, 39, 44, 48, 53, 52, 51, 49, 46, 41, 44, 51, 53},
{47, 47, 53, 59, 64, 66, 64, 59, 57, 56, 56, 55, 64, 66, 70, 72, 90, 93, 97, 94, 95, 85, 79, 73, 74, 74, 71, 68, 90, 125, 176, 181, 190, 182, 160, 109, 106, 90, 95, 95, 96, 103, 112, 104, 107, 97, 92, 87, 88, 85, 86, 79, 72, 100, 100, 114, 117, 127, 106, 110, 99, 94, 78, 89, 88, 83, 83, 91, 95, 91, 95, 97, 90, 79, 97, 124, 147, 161, 168, 173, 157, 146, 152, 164, 151, 146, 138, 116, 84, 92, 94, 94, 100, 100, 99, 108, 107, 108, 121, 116},
{186, 184, 187, 184, 164, 169, 178, 188, 184, 180, 185, 174, 183, 189, 179, 168, 190, 244, 279, 297, 308, 318, 283, 255, 263, 262, 251, 224, 244, 270, 268, 252, 289, 328, 301, 359, 398, 382, 368, 387, 335, 330, 332, 311, 348, 343, 319, 354, 357, 304, 301, 293, 268, 285, 269, 281, 295, 290, 254, 265, 272, 271, 268, 270, 256, 244, 245, 312, 318, 350, 359, 365, 298, 329, 287, 282, 282, 333, 334, 412, 444, 461, 474, 464, 403, 355, 336, 261, 227, 301, 323, 325, 331, 342, 286, 288, 263, 253, 239, 251},
{199, 187, 172, 168, 158, 164, 173, 200, 213, 221, 219, 216, 200, 208, 207, 211, 244, 246, 270, 282, 304, 302, 295, 283, 323, 335, 318, 322, 310, 242, 194, 180, 184, 195, 203, 228, 232, 238, 254, 250, 239, 231, 225, 190, 197, 202, 206, 205, 206, 193, 176, 167, 169, 198, 198, 192, 197, 179, 125, 154, 170, 169, 183, 220, 202, 198, 238, 249, 223, 221, 218, 207, 194, 206, 229, 259, 252, 250, 267, 257, 235, 219, 247, 219, 229, 268, 315, 310, 307, 306, 281, 234, 202, 241, 235, 213, 203, 209, 161, 154},
{157, 159, 160, 159, 144, 149, 152, 154, 179, 190, 193, 197, 192, 190, 194, 193, 217, 214, 217, 223, 257, 261, 262, 278, 272, 250, 211, 209, 170, 159, 142, 143, 141, 148, 150, 166, 169, 192, 196, 188, 179, 181, 163, 146, 148, 145, 138, 134, 141, 160, 155, 148, 150, 145, 120, 116, 121, 110, 116, 124, 123, 144, 155, 169, 174, 180, 175, 170, 147, 140, 144, 162, 169, 165, 200, 224, 239, 238, 264, 242, 215, 190, 197, 180, 172, 205, 226, 232, 233, 235, 218, 193, 178, 186, 183, 168, 155, 164, 141, 133},
{54, 55, 60, 61, 63, 66, 69, 67, 74, 74, 68, 67, 68, 60, 61, 64, 66, 64, 67, 62, 67, 66, 68, 70, 71, 65, 63, 60, 52, 58, 60, 56, 58, 63, 54, 57, 54, 56, 53, 53, 52, 56, 55, 50, 53, 53, 53, 53, 55, 50, 49, 43, 41, 48, 53, 55, 56, 59, 56, 52, 47, 54, 53, 58, 64, 66, 65, 66, 59, 57, 58, 63, 63, 61, 59, 56, 57, 59, 63, 61, 63, 54, 49, 57, 61, 69, 79, 81, 81, 79, 76, 68, 66, 62, 60, 52, 47, 52, 47, 45},
